0, 8290
0, -6673
0, 2784
0, 0
0, 0
0, -3568
0, 1184
0, 896
0, 0
0, 0
0, 0
0, 0
0, 3265
0, 6946
0, 8290
0, -1249
0, 6882
0, 1920
0, 17748
0, 0
0, 0
0, 0
0, 8065
0, 0
0, 4321
0, 0
0, 0
0, 0
0, 0
0, 2161
0, 3585
0, -2224
0, 4209
0, 4753
0, 3569
0, -3761
0, 0
0, 0
0, 0
0, 4305
0, 5777
0, 0
0, 0
0, 0
0, 0
0, -496
0, 3025
0, 7042
0, 576
0, 2368
0, 608
0, 2449
0, 4353
0, 0
0, 0
0, 5553
0, 6929
0, 4113
0, 0
0, 0
0, 0
0, 0
0, 7537
0, -6866
0, 11330
0, 3825
0, 4514
0, 3617
0, 3041
0, 0
0, 0
0, 0
0, -5633
0, 3392
0, 3825
0, 0
0, 0
0, 0
0, -1152
0, -1985
0, 1056
0, 6418
0, -4865
0, 3889
0, 6066
0, 2672
0, 0
0, 2032
0, 0
0, 0
0, 0
0, 0
0, 0
0, 0
0, 0
0, 2913
0, 1313
0, 7698
0, 1760
0, 4337
0, 2001
0, 6145
0, 2448
0, 0
0, 0
0, 10226
0, 17860
0, 3201
0, -64
0, 0
0, 0
0, 3984
0, -224
0, 2065
0, -288
0, 4177
0, 3537
0, 4673
0, 11171
0, 0
0, 0
0, -720
0, 0
0, 0
0, 2944
0, 0
0, 0
0, 0
0, 0
0, -3953
0, -2496
0, 16276
0, 5889
0, 6962
0, -2337
0, -272
0, 0
0, -8065
0, -2816
0, 2224
0, -16
0, 0
0, 0
0, 0
0, 0
0, 3441
0, 6257
0, 12339
0, -64
0, 5730
0, 2209
0, 14915
0, 2049
0, 0
0, 1392
0, 7665
0, 11842
0, 7010
0, 0
0, 0
0, 1760
0, 0
0, -144
0, -1185
0, 6961
0, 976
0, 7857
0, 5601
0, 3009
0, 1952
0, 0
0, -1632
0, 0
0, 8226
0, 3296
0, 0
0, 0
0, 0
0, 0
0, 1728
0, 3777
0, 3425
0, -4801
0, 15508
0, -1648
0, 3297
0, 0
0, 0
0, 5617
0, 2577
0, 1568
0, 0
0, 0
0, 0
0, 0
0, 4657
0, 6258
0, -2753
0, 12483
0, -784
0, 3185
0, -272
0, 1057
0, 0
0, 16596
0, 1248
0, 6161
0, 4849
0, 0
0, 0
0, 0
0, 0
0, 1953
0, 10131
0, 7650
0, 5521
0, 512
0, -1376
0, 2960
0, 0
0, 0
0, 0
0, 0
0, 9330
0, 2848
0, 0
0, 0
0, 0
0, 0
0, 4433
0, -3953
0, -1921
0, 817
0, 1489
0, -1905
0, -3041
0, 0
0, 0
0, -2032
0, 1120
0, -6418
0, 0
0, 0
0, 0
0, 2496
0, -2321
0, 4001
0, -5409
0, 896
0, -4913
0, -176
0, 5138
0, 705
0, 0
0, 0
0, 0
0, 2976
0, 8978
0, 0
0, 0
0, 0
0, 1344
0, 1744
0, 704
0, 16837
0, -4113
0, 768
0, -5297
0, -657
0, 0
0, 832
0, 0
0, -9506
0, -784
0, 5569
0, 0
0, -752
0, 0
0, 0
0, 2673
0, 3233
0, 3793
0, -576
0, 9378
0, 2832
0, -3265
0, 0
0, 0
0, 0
0, 192
0, 2016
0, 0
0, 0
0, 0
0, -768
0, 4545
0, 2993
0, 2369
0, 12243
0, 2272
0, 10931
0, 21013
0, 3793
0, 0
0, 0
0, 0
0, -2928
0, 15764
0, 0
0, 1136
0, 0
0, 0
0, 11667
0, 2192
0, -576
0, 4305
0, 1392
0, -1648
0, 7090
0, 0
0, 0
0, 0
0, 8754
0, 4273
0, 27815
0, 1104
0, 0
0, 0
0, 0
0, 3056
0, -9347
0, 8546
0, -7330
0, 5585
0, 8306
0, -2113
0, 0
0, 0
0, 0
0, 0
0, 1840
0, 0
0, 320
0, 0
0, 0
0, 2720
0, 4914
0, -3681
0, -1504
0, 1761
0, 576
0, 3344
0, 12499
0, 0
0, 0
0, 0
0, -9266
0, 8658
0, 1824
0, 0
0, 0
0, 0
0, -4305
0, 7090
0, -672
0, 256
0, 4145
0, 7138
0, 2128
0, 0
0, 0
0, 2704
0, 2448
0, 0
0, 4385
0, 0
0, 0
0, 0
0, 0
0, 1232
0, 1360
0, -1265
0, 2033
0, 1937
0, 5297
0, 3344
0, 0
0, 3936
0, -3264
0, 1008
0, 4833
0, 0
0, 0
0, 0
0, 1712
0, 6721
0, 8514
0, 8290
0, 2481
0, 7153
0, -640
0, -2112
0, 15107
0, 0
0, 0
0, 0
0, -672
0, -4369
0, 0
0, 0
0, 0
0, 3248
0, 2689
0, -448
0, 14772
0, 4193
0, 5105
0, -4049
0, 3057
0, -160
0, 0
0, 0
0, -7554
0, 6706
0, 3089
0, 0
0, 0
0, 2688
0, -352
0, 5121
0, 11058
0, 7538
0, -5217
0, -4577
0, 1777
0, -5585
0, 0
0, 0
0, 0
0, 8818
0, 5297
0, 0
0, 0
0, 0
0, 0
0, 10082
0, -1440
0, 5618
0, 5057
0, -2177
0, 1968
0, -1441
0, 15651
0, -8882
0, 0
0, 0
0, 0
0, 832
0, 64
0, 0
0, 896
0, 0
0, 5809
0, 240
0, 4321
0, 5714
0, 944
0, -224
0, 832
0, -464
0, 0
0, -2096
0, -4913
0, -2704
0, 3457
0, 0
0, 5585
0, 0
0, 1136
0, 1376
0, 4753
0, -3873
0, 5873
0, -336
0, -2416
0, 6018
0, 0
0, 0
0, 0
0, -9586
0, 7682
0, 0
0, 0
0, 2320
0, 2672
0, -48
0, -1248
0, 9091
0, 2432
0, 2897
0, 12675
0, 6274
0, 3073
0, 0
0, 0
0, 0
0, -976
0, 4562
0, 0
0, 0
0, 0
0, 0
0, -944
0, 1312
0, -1953
0, 3488
0, 2368
0, 4401
0, 9602
0, 0
0, 0
0, 0
0, 4753
0, 11475
0, 3089
0, 0
0, 0
0, 0
0, 1056
0, -6241
0, 3105
0, 9042
0, 769
0, 2656
0, 5265
0, 5794
0, 0
0, 0
0, 2272
0, 0
0, -240
0, 0
0, 0
0, -816
0, 0
0, 5810
0, -2368
0, 0
0, 9170
0, 5041
0, 4401
0, 2688
0, 2961
0, 0
0, 0
0, 0
0, 1744
0, 3553
0, 0
0, 0
0, 0
0, 0
0, 9010
0, 1168
0, 7346
0, 9074
0, 14307
0, 9778
0, 7426
0, 0
0, 0
0, 1088
0, 3904
0, 11794
0, 4737
0, 0
0, 0
0, 0
0, -4481
0, 5426
0, 2960
0, 5201
0, 1473
0, 4401
0, 416
0, 10002
0, 0
0, 0
0, 816
0, 12002
0, 3024
0, 0
0, 272
0, 0
0, -4801
0, -721
0, 9634
0, 16228
0, 1745
0, 12211
0, 4833
0, 3425
0, 4834
0, 0
0, 0
0, 1168
0, -5009
0, 4385
0, 0
0, 0
0, 0
0, 0
0, 6194
0, -2576
0, 7378
0, -1264
0, 1008
0, 7474
0, 13204
0, 0
0, 0
0, 0
0, 4385
0, 2112
0, -240
0, 0
0, 0
0, 0
0, 0
0, -912
0, 1920
0, -2224
0, -7378
0, -7682
0, -1809
0, 11459
0, 0
0, 0
0, 1776
0, 1040
0, 5426
0, 0
0, 0
0, 0
0, 1056
0, -6337
0, 11939
0, 8162
0, 3057
0, 4401
0, 4465
0, 8962
0, 2737
0, 0
0, 0
0, -11827
0, 0
0, 4497
0, 0
0, 0
0, 944
0, 0
0, 2272
0, 1776
0, -1808
0, 12627
0, 2337
0, 4881
0, 4914
0, -320
0, 0
0, 0
0, 4561
0, 12210
0, 5090
0, 0
0, 0
0, 0
0, 0
0, 3136
0, 4689
0, -11299
0, 8194
0, 785
0, 4929
0, -5681
0, 0
0, 0
0, 3520
0, -3824
0, -1280
0, 0
0, 0
0, 0
0, -2448
0, 6657
0, 3297
0, -2625
0, 4433
0, 1696
0, -2593
0, 15043
0, 4129
0, 0
0, 0
0, 4673
0, 0
0, -1857
0, 0
0, 0
0, 0
0, 0
0, 7265
0, 5009
0, -6865
0, -6305
0, 3073
0, 4017
0, 2017
0, -5794
0, 0
0, 3088
0, 0
0, 2961
0, 8962
0, 0
0, 0
0, 0
0, 3568
0, 6417
0, 5218
0, -2257
0, -10882
0, 3649
0, 464
0, -432
0, 1024
0, 0
0, -4465
0, 0
0, -2784
0, 0
0, 0
0, 480
0, 0
0, 2225
0, -1681
0, -12035
0, 5217
0, -96
0, 11779
0, 5058
0, 5169
0, 2480
0, 0
0, 768
0, 2320
0, 6289
0, 0
0, 0
0, 0
0, 2016
0, -4241
0, 1184
0, -401
0, 8066
0, 1792
0, 8882
0, 4049
0, 5266
0, 0
0, 0
0, -128
0, 2624
0, 4657
0, -1296
0, 0
0, -880
0, 976
0, 6098
0, -4769
0, -4017
0, 8274
0, 2192
0, 4273
0, -9955
0, -6817
0, 0
0, 2992
0, 0
0, 2848
0, 0
0, 320
0, 0
0, 0
0, 2081
0, 4065
0, -112
0, 11955
0, 5490
0, 11779
0, 6434
0, 3297
0, 0
0, 0
0, 12323
0, 17108
0, 272
0, 0
0, 0
0, 2528
0, 0
0, 3553
0, 1680
0, 1072
0, 9538
0, -2112
0, -1520
0, -704
0, 4722
0, 0
0, 0
0, 3776
0, 736
0, -544
0, 0
0, 0
0, 0
0, 96
0, 224
0, -11923
0, 784
0, -2417
0, 2417
0, 2977
0, -2592
0, 7457
0, 0
0, 0
0, 17
0, 480
0, 0
0, -672
0, 0
0, 0
0, 0
0, -2624
0, 7313
0, -2913
0, 8114
0, 7393
0, 3393
0, 1440
0, 0
0, 0
0, 0
0, -2752
0, 3681
0, 0
0, 0
0, 0
0, 0
0, 256
0, -2161
0, 10403
0, 11443
0, 448
0, 529
0, -5761
0, 8322
0, 0
0, 0
0, 4080
0, 3792
0, 7874
0, 0
0, 0
0, 0
0, 0
0, -3009
0, 5473
0, 9346
0, 13587
0, -3297
0, 1840
0, 1664
0, 0
0, 0
0, 496
0, 10690
0, 6817
0, 368
0, -544
0, 0
0, 0
0, -640
0, 7746
0, -5906
0, 464
0, 6577
0, -2049
0, -80
0, 5057
0, 0
0, 0
0, 0
0, -768
0, 6833
0, 0
0, 0
0, 0
0, 0
0, 15412
0, -3537
0, 3905
0, 1456
0, 1440
0, -1665
0, 16517
0, 304
0, 0
0, 0
0, 0
0, 6977
0, -320
0, 0
0, 0
0, 0
0, 0
0, -2256
0, 1713
0, 1201
0, -368
0, 1504
0, 2881
0, 8530
0, 0
0, 0
0, -7553
0, 0
0, 8306
0, 10146
0, 0
0, 0
0, 0
0, 6145
0, -2209
0, 8418
0, 432
0, 3281
0, 3137
0, 1760
0, 2224
0, 0
0, 0
0, 0
0, 7153
0, 3489
0, 0
0, 0
0, 0
0, 0
0, 3265
0, 2625
0, 128
0, -10659
0, 8690
0, -1808
0, 8962
0, 2240
0, 0
0, 0
0, 0
0, 6897
0, 8082
0, 0
0, 0
0, 0
0, 0
0, -625
0, 5153
0, 12803
0, 7730
0, 1424
0, 12499
0, -912
0, 0
0, 0
0, 4353
0, 0
0, 768
0, 5425
0, 0
0, 0
0, 0
0, 8306
0, 8018
0, 6833
0, -368
0, 3536
0, -2864
0, 14787
0, 8050
0, 0
0, 0
0, 0
0, -12355
0, 1312
0, 0
0, 0
0, 0
0, 0
0, 368
0, -80
0, -4369
0, 5345
0, 3168
0, -352
0, 5057
0, 3488
0, 0
0, 0
0, 12739
0, 0
0, 5393
0, 0
0, 0
0, 816
0, 0
0, 4338
0, -2641
0, 1456
0, -7569
0, 9763
0, -80
0, 6034
0, 0
0, 496
0, 0
0, 0
0, 0
0, 3889
0, 0
0, 0
0, 0
0, -12242
0, 8242
0, 1681
0, 4513
0, 8034
0, -1072
0, -576
0, -2496
0, 0
0, 4977
0, 6369
0, 4977
0, 3185
0, 0
0, 0
0, 720
0, 0
0, -2336
0, 6065
0, 7009
0, 7681
0, 8418
0, 2000
0, 6210
0, 5874
0, 0
0, 0
0, 544
0, 4433
0, 12995
0, 0
0, 2560
0, 0
0, 2736
0, 4641
0, -2593
0, 1712
0, 4929
0, 3632
0, 3441
0, -32
0, 0
0, 0
0, 0
0, 6657
0, 1760
0, 608
0, 0
0, 0
0, 0
0, 9010
0, -5921
0, 832
0, 7026
0, 1985
0, 4321
0, 1521
0, 15796
0, 0
0, 0
0, 0
0, 8962
0, 4097
0, 0
0, 0
0, 0
0, 0
0, 5089
0, -1024
0, 10307
0, -2977
0, 3729
0, 1104
0, 7762
0, 20340
0, 0
0, 0
0, 0
0, 0
0, -160
0, 0
0, 0
0, 0
0, 0
0, -784
0, 544
0, 4625
0, 7137
0, 8818
0, -1104
0, 3440
0, 0
0, 0
0, 8386
0, 7073
0, -448
0, 7458
0, 192
0, 0
0, 736
0, 0
0, -704
0, 2737
0, -320
0, -2864
0, 4017
0, 2785
0, 7201
0, 0
0, 0
0, 8434
0, 0
0, 7441
0, 0
0, 0
0, 0
0, 4721
0, 5889
0, -6321
0, -12804
0, 1008
0, 7986
0, 9266
0, 2961
0, 1264
0, 0
0, -1056
0, 0
0, 1776
0, 2192
0, 0
0, 0
0, 128
0, 0
0, 9395
0, 5762
0, 864
0, 4177
0, 6882
0, 1584
0, 2992
0, 0
0, 0
0, -2496
0, 0
0, 3265
0, 4625
0, 0
0, 0
0, 0
0, 0
0, 6913
0, 7058
0, 19253
0, 1825
0, 160
0, 2593
0, -16852
0, 0
0, 1552
0, 0
0, 1728
0, 3888
0, 0
0, 0
0, 0
0, 0
0, 1856
0, 704
0, 7458
0, 2656
0, -1520
0, 4865
0, 7122
0, 4049
0, 0
0, 0
0, 0
0, 0
0, 864
0, 0
0, 336
0, 0
0, 0
0, -1441
0, 7490
0, -1184
0, -4161
0, 1600
0, -528
0, 7153
0, 0
0, 0
0, -1792
0, 0
0, 4593
0, 30455
0, 0
0, 0
0, 3408
0, 0
0, -1360
0, -6433
0, 7138
0, 2112
0, 1904
0, 3713
0, 384
0, 0
0, -9330
0, 0
0, -7170
0, -1952
0, 0
0, 0
0, 0
0, 0
0, 1393
0, 5298
0, -6386
0, 15732
0, 5473
0, 976
0, 8322
0, 10371
0, 0
0, 3440
0, 96
0, 6465
0, 8882
0, 0
0, 0
0, 0
0, 0
0, 10578
0, 288
0, 8018
0, 208
0, 2225
0, 4498
0, -1040
0, 0
0, 0
0, 0
0, 0
0, 7393
0, 28070
0, 0
0, 0
0, 1136
0, 0
0, 4449
0, -1520
0, 2480
0, -944
0, 3200
0, -2144
0, 5473
0, 0
0, 0
0, 0
0, 5586
0, 7025
0, 0
0, 0
0, -912
0, 592
0, -6610
0, 10595
0, -2097
0, -2928
0, -1392
0, 7857
0, 3089
0, 4016
0, 0
0, 0
0, 4705
0, -80
0, 5714
0, 0
0, 2736
0, 0
0, 0
0, 2976
0, 3601
0, 208
0, 4513
0, 4241
0, 15924
0, -640
0, 0
0, 2288
0, 2080
0, 0
0, 448
0, 7538
0, 0
0, -3424
0, 0
0, 0
0, 3633
0, 9347
0, -4994
0, -2400
0, 3937
0, -2417
0, -5090
0, 0
0, 0
0, 0
0, 256
0, 5810
0, 0
0, 0
0, 0
0, 224
0, 1361
0, -1504
0, 11458
0, 6081
0, 1360
0, -1904
0, 449
0, 3105
0, 0
0, -1264
0, 0
0, 0
0, 4769
0, 0
0, 0
0, 0
0, 0
0, 9171
0, -1473
0, -1232
0, -1056
0, -2784
0, 6641
0, 3921
0, 7729
0, 0
0, 0
0, 0
0, 3456
0, 5025
0, 0
0, 0
0, 0
0, 0
0, -1440
0, 1728
0, 12307
0, 2593
0, 2769
0, 5057
0, 6178
0, 2800
0, 0
0, 368
0, 0
0, 4737
0, 0
0, 0
0, 0
0, 0
0, 4674
0, 2960
0, 2289
0, 1872
0, 4577
0, 3153
0, 11283
0, 5201
0, 656
0, 0
0, -8065
0, 16004
0, 8514
0, 0
0, 0
0, 0
0, 0
0, 2176
0, 864
0, 10050
0, 9458
0, 1729
0, 12675
0, 1248
0, 0
0, 0
0, 5233
0, 0
0, 2913
0, 4385
0, 0
0, 0
0, 0
0, 0
0, 5873
0, 912
0, 640
0, 2657
0, 2176
0, 3105
0, 11730
0, 0
0, 0
0, 1344
0, -7537
0, -7682
0, 0
0, 0
0, 0
0, 2816
0, 3825
0, 3841
0, 1856
0, -6978
0, 12163
0, 5073
0, 4642
0, 1953
0, 0
0, 0
0, 0
0, -785
0, 1472
0, 0
0, 0
0, 0
0, 0
0, 1152
0, 2992
0, 9794
0, -5297
0, -3761
0, 5473
0, 1729
0, 0
0, 0
0, 832
0, 960
0, 18228
0, 6114
0, 0
0, 1552
0, 2768
0, 0
0, 8562
0, 4849
0, 1008
0, -1601
0, -4369
0, 12452
0, 2673
0, 0
0, 0
0, 0
0, 1824
0, -2848
0, 0
0, 0
0, 0
0, 0
0, 800
0, 2865
0, 11794
0, 1632
0, 11186
0, 4577
0, 944
0, 1824
0, 0
0, 0
0, 0
0, -5265
0, 1745
0, 0
0, 0
0, 0
0, 3056
0, 11235
0, 5889
0, 3297
0, 176
0, 5281
0, 16948
0, 3040
0, 0
0, 0
0, 0
0, 1184
0, 0
0, 7538
0, 240
0, 0
0, 0
0, 0
0, 2113
0, 6113
0, 929
0, 9346
0, 9570
0, 4225
0, 4625
0, 0
0, 0
0, 0
0, 0
0, -1920
0, 0
0, 0
0, 0
0, 0
0, 10290
0, -480
0, 1120
0, -7522
0, 2417
0, -3809
0, 3377
0, 1984
0, 0
0, 0
0, 0
0, 0
0, -4289
0, 0
0, 0
0, 0
0, 0
0, -544
0, 6562
0, -4337
0, -6834
0, 1568
0, 7682
0, 3697
0, 0
0, 0
0, 0
0, 0
0, -656
0, 6722
0, 0
0, 0
0, 0
0, 0
0, 7361
0, 4705
0, 3889
0, 608
0, 2545
0, 3649
0, -3137
0, 0
0, 0
0, 4561
0, -192
0, -10610
0, 128
0, 2368
0, 1088
0, 0
0, 4193
0, 1536
0, 7026
0, -7106
0, 7426
0, 1680
0, 14835
0, 8562
0, 0
0, 2032
0, 0
0, -3489
0, 11699
0, 0
0, 0
0, 144
0, -1456
0, -5026
0, -897
0, 4497
0, -2449
0, 3393
0, 5361
0, 6929
0, 0
0, 0
0, 2864
0, 6898
0, 6897
0, 5969
0, 0
0, 1632
0, 0
0, 0
0, 1857
0, -1136
0, -8258
0, -1200
0, 2209
0, 3777
0, 2849
0, 0
0, 0
0, 0
0, 0
0, 400
0, 0
0, 0
0, 0
0, 0
0, 1536
0, 2193
0, 7682
0, 2528
0, 4065
0, 2496
0, 7026
0, 928
0, 0
0, 0
0, 0
0, -5650
0, 5921
0, 0
0, 0
0, 0
0, 2432
0, -2753
0, 400
0, -1264
0, 4209
0, 881
0, 96
0, -3824
0, -8017
0, 0
0, 11794
0, 6769
0, 11651
0, 10739
0, -1360
0, 0
0, 0
0, 0
0, 11363
0, 2080
0, 12307
0, -4801
0, 4545
0, -9650
0, 8066
0, 0
0, 0
0, 1648
0, 0
0, 4833
0, 0
0, 0
0, 640
0, 0
0, 4754
0, 6705
0, -1776
0, 3105
0, 3745
0, 6370
0, 5729
0, 4305
0, 0
0, 0
0, 0
0, 0
0, 1472
0, 176
0, 0
0, 0
0, 0
0, 3953
0, 4785
0, 15940
0, 881
0, 1520
0, 9282
0, 4545
0, 1521
0, 0
0, 0
0, 0
0, 0
0, 7218
0, 0
0, 0
0, 0
0, 2944
0, 224
0, 13235
0, 4017
0, -80
0, 928
0, 11763
0, 6529
0, 0
0, 0
0, 0
0, -32
0, 8017
0, -960
0, 784
0, 0
0, 0
0, 0
0, 320
0, 3265
0, -5153
0, 6449
0, 2240
0, 7250
0, 928
0, 0
0, 0
0, 9250
0, 8690
0, 15475
0, 0
0, 848
0, 0
0, 64
0, 96
0, -1473
0, 9410
0, 6769
0, 5842
0, -2497
0, 4161
0, 2528
0, 0
0, 0
0, -1024
0, 3793
0, 5425
0, 0
0, 0
0, 0
0, 5265
0, 528
0, 7506
0, -2880
0, 1153
0, 2641
0, 7409
0, -1264
0, 0
0, 0
0, 1520
0, -848
0, 2528
0, 0
0, 0
0, 0
0, 0
0, 2400
0, 3153
0, 3425
0, 3153
0, 6241
0, 2257
0, 6321
0, 7810
0, 0
0, 7233
0, 0
0, 4721
0, 8835
0, 0
0, 0
0, 0
0, -2192
0, 5985
0, 1808
0, 5746
0, 8258
0, 9618
0, -352
0, 13363
0, 1920
0, 0
0, 0
0, 0
0, -6433
0, 6786
0, 0
0, 0
0, 3712
0, 0
0, 7025
0, 4113
0, -13796
0, -4737
0, 10898
0, 720
0, -5393
0, 0
0, 0
0, 0
0, 4977
0, 6705
0, 0
0, 0
0, 0
0, 0
0, 0
0, 6386
0, 2480
0, -5425
0, 48
0, -3713
0, 3073
0, 2576
0, 0
0, 0
0, 0
0, -4817
0, 1984
0, 0
0, 0
0, 0
0, 0
0, 12339
0, 6290
0, -720
0, 2081
0, 3569
0, 4001
0, 6098
0, 4433
0, 0
0, 2416
0, 1520
0, 336
0, 7874
0, 400
0, 0
0, 3184
0, 3216
0, 3745
0, 3328
0, -1376
0, -2112
0, 4401
0, 2800
0, 2113
0, 0
0, 0
0, -8482
0, 0
0, -4401
0, 0
0, 0
0, 0
0, 0
0, 3697
0, 256
0, 288
0, 1905
0, 6881
0, -6833
0, -6034
0, 4433
0, 0
0, 0
0, 0
0, 0
0, 640
0, 1088
0, 0
0, 3392
0, 0
0, 10707
0, 3329
0, -2080
0, 9666
0, 15572
0, -1184
0, -785
0, 4033
0, 0
0, 0
0, 0
0, -12163
0, 9026
0, 0
0, 160
0, 0
0, 1824
0, 6961
0, 6050
0, 1264
0, 6130
0, 9314
0, 9074
0, 2673
0, 0
0, 0
0, 0
0, 0
0, -3777
0, 0
0, 0
0, 0
0, 0
0, 4113
0, -896
0, 2096
0, 7650
0, 10467
0, 4017
0, 8466
0, 10883
0, 0
0, 0
0, -3888
0, 6065
0, 560
0, 0
0, 0
0, 6593
0, 0
0, 4225
0, 8578
0, -1824
0, -960
0, 2384
0, 4017
0, 3857
0, 17812
0, -1824
0, 0
0, -3312
0, 2064
0, 8498
0, 0
0, 0
0, 0
0, 0
0, -1040
0, 3249
0, 9026
0, 432
0, 3937
0, 5025
0, 2064
0, 0
0, 0
0, 0
0, 5105
0, 1648
0, 0
0, 0
0, 0
0, 0
0, 0
0, 2657
0, 288
0, 1648
0, 1968
0, -3729
0, -6097
0, 3009
0, 0
0, 0
0, 0
0, -5569
0, 10930
0, 0
0, 0
0, 0
0, 2992
0, 6529
0, -865
0, 9106
0, 11827
0, 2529
0, 11731
0, 3441
0, 0
0, 0
0, 0
0, 0
0, 6561
0, 9378
0, 0
0, 0
0, 0
0, 0
0, 5249
0, -528
0, 0
0, 7378
0, 1584
0, 4241
0, -4498
0, 0
0, 0
0, 0
0, 10322
0, -2768
0, 0
0, 0
0, 1712
0, -1616
0, 5057
0, -4433
0, 3680
0, 977
0, 6833
0, -800
0, 2288
0, 5521
0, 0
0, 3536
0, 0
0, 6753
0, 4657
0, 0
0, 0
0, 0
0, 0
0, -4785
0, 2385
0, -1664
0, 2528
0, 3553
0, 1680
0, 1584
0, -576
0, 3024
0, 0
0, 0
0, 5409
0, 1168
0, 0
0, 0
0, 1280
0, 0
0, -3969
0, 4881
0, 96
0, -432
0, 6722
0, -625
0, 6258
0, 0
0, 0
0, 0
0, 0
0, 9714
0, 3873
0, 176
0, 0
0, 240
0, -14595
0, 6690
0, 1216
0, 2913
0, 9731
0, 2464
0, -2529
0, 3889
0, 0
0, 0
0, 1760
0, 9778
0, 9650
0, 0
0, 160
0, 0
0, 0
0, 176
0, -1568
0, 3905
0, 1969
0, 4817
0, 4273
0, 3985
0, 1248
0, 0
0, 240
0, 0
0, 6338
0, 9074
0, 0
0, 0
0, 0
0, 0
0, 1440
0, -320
0, 4481
0, 9154
0, 3520
0, 18837
0, 3601
0, 0
0, 2224
0, 0
0, 3552
0, 2560
0, 3008
0, 0
0, 1712
0, 0
0, 0
0, -2513
0, 7826
0, 21061
0, -5506
0, 832
0, 5762
0, 5489
0, 0
0, 0
0, -2304
0, -6337
0, 3329
0, 0
0, 0
0, 0
0, 2448
0, 1200
0, 5281
0, 8434
0, 10354
0, 8162
0, 2305
0, 1344
0, 1648
0, 0
0, 0
0, 0
0, 0
0, 5425
0, 0
0, 0
0, 592
0, 0
0, -240
0, -11587
0, -4048
0, -5106
0, 2705
0, 2048
0, 15060
0, 0
0, 0
0, 0
0, 0
0, 10418
0, 5793
0, 0
0, 0
0, 4465
0, 0
0, 7922
0, -8098
0, 6962
0, -368
0, 880
0, -1825
0, 3505
0, 0
0, 0
0, 0
0, 13331
0, 3505
0, 960
0, 0
0, 0
0, 2976
0, 1105
0, 2097
0, 1841
0, 4833
0, 3969
0, 7842
0, 2881
0, 4322
0, 0
0, 0
0, 0
0, 0
0, -305
0, 0
0, 0
0, 0
0, 0
0, 10322
0, -1328
0, 2480
0, 8114
0, 8722
0, 1888
0, 2001
0, 0
0, 0
0, 6337
0, 16852
0, 656
0, 384
0, 688
0, 0
0, 0
0, -736
0, 2481
0, 208
0, 704
0, -11923
0, 8034
0, 2433
0, 3713
0, 0
0, 0
0, 0
0, 8562
0, 1728
0, 0
0, 0
0, 4129
0, 272
0, 7185
0, 7346
0, -10019
0, 13892
0, 3441
0, 560
0, 4897
0, 208
0, -6865
0, 0
0, 1344
0, 9106
0, 7377
0, 0
0, 0
0, 0
0, 32
0, 7666
0, 6722
0, -2593
0, 5314
0, 2881
0, 8642
0, -3009
0, 2544
0, 0
0, 3632
0, 6961
0, -2145
0, 4433
0, 0
0, 0
0, 1744
0, 0
0, -3249
0, -1409
0, 1857
0, -2544
0, 128
0, 10435
0, 3425
0, 0
0, 0
0, 0
0, 17972
0, 11794
0, 0
0, 0
0, 4241
0, 0
0, 10098
0, 4033
0, 6033
0, 4097
0, 6450
0, 18980
0, -913
0, 6337
0, 0
0, 0
0, 0
0, 4064
0, 9474
0, 0
0, 0
0, 0
0, 2112
0, 8770
0, 6338
0, 10114
0, 3377
0, -1152
0, 4610
0, 560
0, 0
0, 0
0, -160
0, 0
0, 3761
0, 4241
0, 0
0, 0
0, 944
0, 0
0, 8050
0, 9170
0, -5489
0, -5985
0, 4817
0, 10802
0, -1328
0, 3376
0, 3568
0, 0
0, -1456
0, 0
0, 0
0, 0
0, 0
0, 336
0, 3921
0, 5233
0, 3345
0, 5937
0, 3985
0, 5649
0, -416
0, 4977
0, 0
0, 160
0, 4737
0, 1088
0, 5602
0, 0
0, 0
0, 0
0, 368
0, 3793
0, 6466
0, -2657
0, 3425
0, -1568
0, -2144
0, -336
0, 0
0, 0
0, 2512
0, 0
0, 6945
0, 5777
0, 0
0, 0
0, 0
0, 0
0, 5921
0, 256
0, 16180
0, 7362
0, 8674
0, 128
0, 5617
0, 0
0, 0
0, 6081
0, -2336
0, 4241
0, 0
0, 1104
0, 0
0, 0
0, -3921
0, -1568
0, 3025
0, 6225
0, 7906
0, 1073
0, 1456
0, 22789
0, 0
0, 0
0, 2688
0, 128
0, 5681
0, 0
0, 0
0, 1552
0, 0
0, 5698
0, -1585
0, 0
0, -3873
0, 2832
0, 6034
0, -3041
0, 0
0, 0
0, 1136
0, 0
0, -5873
0, 23525
0, 0
0, 368
0, 0
0, 0
0, 1072
0, 4978
0, 3601
0, 1440
0, 1872
0, 1953
0, 7073
0, 0
0, 0
0, -8274
0, 0
0, 6049
0, 0
0, 0
0, 0
0, 0
0, -3008
0, 2657
0, 4705
0, -2657
0, 5330
0, -384
0, 3824
0, 6962
0, 0
0, 0
0, 4577
0, -5345
0, 6401
0, 0
0, 0
0, 0
0, -3904
0, 1601
0, 6625
0, 8034
0, -4161
0, 4161
0, -6321
0, 3377
0, 3840
0, 0
0, 0
0, 2160
0, 17220
0, 5298
0, 0
0, 0
0, 1712
0, 0
0, -1184
0, 3425
0, 6818
0, 1985
0, 5681
0, 4801
0, 3873
0, -800
0, 0
0, -3712
0, 6018
0, 4449
0, 0
0, 0
0, 0
0, 0
0, 5489
0, 1856
0, 2176
0, 5857
0, 1761
0, -384
0, 336
0, 3361
0, 0
0, 9746
0, 0
0, 4753
0, 7586
0, 0
0, 0
0, 0
0, -3904
0, 5298
0, -416
0, 6402
0, 9314
0, 2416
0, 6369
0, -417
0, 0
0, 0
0, 0
0, 0
0, -272
0, 27078
0, 0
0, 0
0, 0
0, 0
0, 1088
0, 1841
0, -15107
0, 9106
0, 10834
0, 4417
0, 8850
0, 0
0, 0
0, -1136
0, 2672
0, 11362
0, 2976
0, 0
0, 0
0, 0
0, 5585
0, -4737
0, 3505
0, -528
0, 8690
0, -5041
0, -912
0, 6946
0, 0
0, 0
0, -3968
0, 0
0, 8498
0, 64
0, 0
0, 0
0, 0
0, 5041
0, 6305
0, 16772
0, -4577
0, 9378
0, 2496
0, 8450
0, 0
0, 0
0, 6417
0, -6881
0, -2800
0, 4737
0, 0
0, 2464
0, 0
0, 0
0, 4241
0, 6897
0, 9523
0, 10691
0, 3633
0, -4289
0, 3409
0, 0
0, 0
0, 0
0, 0
0, 7586
0, 0
0, 0
0, 0
0, 688
0, -2400
0, 752
0, 5281
0, -5618
0, -1632
0, 8434
0, 1985
0, -2593
0, 3312
0, 0
0, -4161
0, 0
0, 5393
0, 0
0, 0
0, 0
0, 1872
0, -2560
0, 7250
0, 3681
0, 5361
0, 688
0, 2496
0, 7298
0, -1792
0, 0
0, 0
0, 0
0, 5553
0, 6162
0, 0
0, 0
0, 0
0, 240
0, 3697
0, 7714
0, -3920
0, 8834
0, 8530
0, 5185
0, 448
0, 0
0, -128
0, 0
0, 0
0, 5793
0, 0
0, 0
0, 0
0, 0
0, 2737
0, 6354
0, -3281
0, -2417
0, 7682
0, 7745
0, 6785
0, 3985
0, 0
0, 544
0, 176
0, 0
0, 9154
0, 0
0, 0
0, 0
0, 0
0, -2272
0, 0
0, 3425
0, 288
0, 5410
0, -7121
0, 3312
0, 0
0, 0
0, 0
0, 0
0, -9714
0, 5649
0, 0
0, 1296
0, 0
0, 0
0, 896
0, 2545
0, -1200
0, 1920
0, 1553
0, 8050
0, 2289
0, 0
0, 1216
0, 2032
0, 0
0, -2272
0, 0
0, 0
0, 0
0, 256
0, 3521
0, 3025
0, 6530
0, 3681
0, 3313
0, 3841
0, 5009
0, 208
0, 0
0, 5873
0, 10034
0, -1712
0, 448
0, 0
0, 0
0, 0
0, 544
0, 4801
0, 11987
0, -3025
0, -9123
0, 3969
0, 4897
0, 19492
0, 0
0, 0
0, -1776
0, -1280
0, 9442
0, 5154
0, 32
0, 0
0, 0
0, 0
0, 10642
0, 5841
0, 160
0, 4001
0, -1248
0, 992
0, 12371
0, 0
0, 0
0, 0
0, 0
0, 6849
0, 0
0, 0
0, 1664
0, 192
0, 6561
0, 3520
0, -4929
0, -7842
0, 8530
0, 2016
0, 3217
0, -5378
0, 0
0, 0
0, 1312
0, -11026
0, 4482
0, 0
0, 0
0, 0
0, 160
0, 4641
0, 6481
0, 3729
0, 12755
0, 3857
0, -2641
0, 15491
0, 0
0, 0
0, 0
0, 7442
0, 7441
0, 7986
0, 0
0, 880
0, 0
0, 0
0, 1536
0, -1408
0, 2977
0, -5745
0, 400
0, 2785
0, 6066
0, 0
0, 0
0, 0
0, -7153
0, 5233
0, 0
0, 0
0, 0
0, 64
0, 2944
0, 5089
0, 1296
0, 9378
0, 11699
0, 3985
0, 6018
0, 6641
0, -3568
0, 0
0, 0
0, 5713
0, 6594
0, 0
0, 0
0, 0
0, 1856
0, 816
0, 2065
0, 5985
0, 2545
0, 2192
0, 5138
0, 2128
0, 1280
0, 0
0, -5633
0, -192
0, -7426
0, 6610
0, 0
0, 0
0, 0
0, 4929
0, -3216
0, 3393
0, -9394
0, -352
0, 4689
0, 3185
0, 6450
0, 0
0, 3040
0, 3504
0, 0
0, 7569
0, 0
0, 0
0, 0
0, 0
0, 3553
0, 160
0, -2017
0, 9330
0, 1136
0, -928
0, -1953
0, 1520
0, -2529
0, 0
0, 0
0, 0
0, 12323
0, 0
0, 0
0, 0
0, 0
0, 6274
0, 2769
0, -3025
0, 6434
0, 2449
0, 6146
0, 4081
0, 0
0, 0
0, 0
0, 3696
0, -6641
0, 7458
0, 0
0, 0
0, 0
0, 0
0, -6674
0, 9603
0, -5537
0, 2544
0, -176
0, 5969
0, 11747
0, 0
0, 0
0, 0
0, 0
0, 400
0, 0
0, 0
0, 0
0, 0
0, 8690
0, 9298
0, -48
0, 7634
0, 2385
0, -608
0, 8626
0, 4513
0, 0
0, 0
0, 0
0, 6641
0, 14051
0, 0
0, -1120
0, 0
0, 0
0, 3761
0, -1792
0, -8706
0, 6626
0, 1232
0, 5009
0, 5041
0, 8450
0, 1600
0, 0
0, 3328
0, 0
0, 7730
0, 0
0, 0
0, 4385
0, 0
0, 4690
0, 720
0, -12787
0, 3857
0, 5089
0, -7426
0, 3585
0, 0
0, 0
0, 1232
0, 19108
0, 1168
0, 0
0, 672
0, -1184
0, 0
0, 7186
0, 720
0, 7906
0, 4961
0, 1136
0, 2817
0, 15332
0, 6018
0, 0
0, -3328
0, 0
0, -6145
0, -8034
0, 0
0, 0
0, 0
0, 0
0, 2625
0, 7954
0, 8130
0, 2176
0, 2305
0, -2961
0, 5409
0, 176
0, 0
0, 0
0, 6945
0, 4289
0, 3953
0, 0
0, 0
0, 0
0, 2224
0, 816
0, -4833
0, -10610
0, 4305
0, 4369
0, 4545
0, 4641
0, 0
0, 0
0, -2576
0, 6273
0, 352
0, 0
0, 0
0, 1872
0, 0
0, -13651
0, 5297
0, -4705
0, -1441
0, 9378
0, 4577
0, -4721
0, 9427
0, 0
0, 0
0, 0
0, 2896
0, 2417
0, 0
0, 0
0, 0
0, -80
0, 5442
0, -208
0, 7586
0, 6162
0, 3809
0, -800
0, 9507
0, 16355
0, 0
0, 208
0, 688
0, 0
0, 11411
0, 0
0, 0
0, 0
0, 1280
0, 384
0, 2673
0, -12691
0, 3697
0, 5777
0, 704
0, 4177
0, 0
0, 0
0, 464
0, 1120
0, 15860
0, 0
0, 1120
0, 0
0, 0
0, 0
0, -5153
0, -6161
0, -8754
0, 2800
0, 4322
0, 1537
0, 12034
0, 0
0, 0
0, 0
0, 10146
0, 7938
0, 0
0, 0
0, 0
0, 1664
0, 4305
0, 2720
0, 8946
0, 9362
0, 2801
0, 80
0, 4785
0, 0
0, 0
0, 224
0, 6065
0, 448
0, 4673
0, 1024
0, 0
0, 0
0, 0
0, 7153
0, -1696
0, 5377
0, 5362
0, 5185
0, 15491
0, -3648
0, 1088
0, 0
0, 2336
0, -9458
0, 864
0, 0
0, 0
0, 256
0, 0
0, 0
0, 6593
0, -5026
0, 2945
0, 7074
0, 1681
0, 4657
0, 2433
0, 0
0, 0
0, 1504
0, 5905
0, 14243
0, 1024
0, 0
0, 464
0, 0
0, 2353
0, -7089
0, 11555
0, 8434
0, -768
0, -1185
0, -7666
0, 1840
0, 0
0, 3264
0, 0
0, -5121
0, 5553
0, 0
0, 0
0, 0
0, 0
0, -2193
0, 3281
0, 9106
0, 3761
0, 4625
0, 4129
0, 2976
0, 0
0, 0
0, 0
0, 0
0, 5857
0, 5473
0, 0
0, 0
0, 2496
0, -960
0, 9651
0, -2784
0, 6754
0, 7329
0, -1473
0, 3585
0, -1216
0, 0
0, 2352
0, 0
0, -4865
0, 4161
0, 480
0, 0
0, 0
0, 1472
0, 4513
0, -3825
0, 1648
0, -2801
0, 8786
0, 2001
0, 16820
0, 1040
0, 0
0, 0
0, 1968
0, 6738
0, 10547
0, 0
0, 0
0, 0
0, 128
0, 3777
0, 4289
0, 12274
0, 2113
0, -1793
0, 14180
0, 3233
0, 0
0, -3984
0, 0
0, -2241
0, 7217
0, 4209
0, 0
0, 0
0, 0
0, 9554
0, 2368
0, 3377
0, 2705
0, 2193
0, 4513
0, 1889
0, 5922
0, 0
0, 0
0, 0
0, -2160
0, 432
0, 0
0, 0
0, 2416
0, 0
0, 5458
0, 2385
0, 4081
0, 5809
0, 1472
0, -176
0, 4145
0, 4449
0, 0
0, 0
0, 6641
0, -2256
0, 2897
0, 0
0, 0
0, 0
0, -4945
0, 2448
0, -2032
0, 2256
0, 4289
0, 2464
0, -4273
0, -1905
0, 0
0, 0
0, -1152
0, -16
0, 3584
0, 5553
0, 0
0, 0
0, 2064
0, 0
0, 4097
0, -1728
0, -48
0, 7810
0, 4017
0, -2913
0, 3280
0, 0
0, 0
0, 4081
0, 5713
0, 10098
0, 0
0, 1328
0, 0
0, 496
0, 10018
0, 528
0, 10563
0, 6433
0, 9523
0, 7010
0, 6754
0, 2753
0, 0
0, 0
0, 1472
0, 5505
0, 9411
0, 2448
0, 0
0, 4673
0, 288
0, -2528
0, -7650
0, -6065
0, -3761
0, -5057
0, 1968
0, -5969
0, 0
0, 0
0, 5361
0, 1360
0, 6386
0, 5777
0, 0
0, 0
0, 0
0, 0
0, 1472
0, 3057
0, -13395
0, 1792
0, -881
0, -544
0, 8002
0, 0
0, 0
0, 0
0, 0
0, 2289
0, 0
0, 0
0, 0
0, 0
0, 5858
0, -1713
0, 3073
0, -864
0, 5025
0, -2192
0, 6993
0, 128
0, -1600
0, 0
0, -6401
0, -6562
0, 5969
0, 0
0, 0
0, 0
0, 0
0, 11298
0, 2192
0, 12867
0, -2592
0, 560
0, 224
0, 11075
0, 0
0, 0
0, 0
0, -7473
0, 1585
0, 2481
0, 0
0, 0
0, 0
0, 0
0, 3936
0, -7665
0, 8658
0, 3873
0, -368
0, 448
0, 1633
0, 0
0, 0
0, 0
0, -1953
0, 8994
0, 0
0, 0
0, 0
0, 0
0, 1136
0, 1040
0, -6353
0, 7538
0, 1617
0, 2209
0, -1633
0, 2433
0, 0
0, 0
0, 0
0, 2128
0, 3009
0, 0
0, 0
0, 0
0, 0
0, 1920
0, 3841
0, -2112
0, -3152
0, -6386
0, 4577
0, 1344
0, 0
0, 0
0, 0
0, 0
0, 15572
0, 2417
0, 0
0, 0
0, 0
0, 208
0, 5682
0, -3633
0, 6881
0, 10419
0, 1873
0, 3313
0, 3569
0, 0
0, 0
0, 0
0, 288
0, -1681
0, 0
0, 0
0, 0
0, 0
0, -5425
0, 3905
0, -3488
0, -48
0, -448
0, 4113
0, -5425
0, -736
0, 0
0, 0
0, 0
0, 0
0, 6433
0, 0
0, 0
0, 0
0, 0
0, -10034
0, -592
0, 14403
0, 656
0, 3985
0, 9714
0, -1377
0, 1872
0, 0
0, 0
0, 3584
0, -5057
0, 0
0, 0
0, 0
0, 0
0, 0
0, 5169
0, 1184
0, 4433
0, 5570
0, 7922
0, -816
0, -7458
0, 0
0, 0
0, 0
0, 13171
0, 6193
0, 0
0, 0
0, 0
0, 400
0, 7905
0, 496
0, 6193
0, -4161
0, -1424
0, 2513
0, 4065
0, 5665
0, 0
0, 0
0, 0
0, 4305
0, 11651
0, 0
0, 2688
0, 0
0, 0
0, -545
0, 7122
0, 5217
0, 4065
0, 5377
0, 4561
0, 2688
0, 0
0, 0
0, 0
0, -3216
0, 1440
0, 4177
0, 0
0, 768
0, 0
0, 0
0, -10354
0, 6113
0, 2369
0, 3793
0, 1392
0, -1745
0, 2721
0, 9970
0, 0
0, 0
0, 4849
0, 1664
0, 0
0, 576
0, 0
0, -5505
0, -1121
0, 0
0, 9554
0, 2753
0, 2960
0, 1104
0, -3345
0, 1008
0, 0
0, 0
0, 2545
0, 8610
0, 12083
0, 0
0, 0
0, 4289
0, 480
0, 961
0, 5954
0, 4977
0, 8050
0, -11907
0, 4785
0, 14340
0, 0
0, 0
0, -2592
0, 3040
0, 3920
0, 8930
0, 0
0, 0
0, 0
0, 3552
0, 4593
0, 12851
0, 3153
0, -2817
0, 1296
0, 6449
0, 400
0, 0
0, 0
0, 0
0, -4257
0, 5297
0, 0
0, 0
0, 0
0, 144
0, 5457
0, -2033
0, 3201
0, 7185
0, 5089
0, 3409
0, 14035
0, 4865
0, 0
0, 0
0, 0
0, -144
0, 14292
0, 0
0, 0
0, 0
0, 4417
0, 5505
0, 1232
0, 6017
0, 10386
0, 720
0, 3088
0, -4849
0, 0
0, 0
0, 0
0, 0
0, -15636
0, 8162
0, 0
0, 0
0, 96
0, 0
0, 3633
0, -13267
0, 7874
0, 18388
0, 2624
0, -416
0, 18181
0, 0
0, 2176
0, 2416
0, 0
0, -3841
0, 0
0, 0
0, 0
0, -928
0, 3936
0, 1104
0, 768
0, -7602
0, 3393
0, 32
0, 1152
0, 4849
0, 0
0, 0
0, 0
0, 0
0, 10947
0, 0
0, 0
0, 0
0, 0
0, 5393
0, 5410
0, 8018
0, 3153
0, -1761
0, 1265
0, 14067
0, 0
0, 0
0, 0
0, 0
0, 0
0, 7553
0, 0
0, 0
0, 0
0, 2593
0, 2384
0, -240
0, 1649
0, -2128
0, 2704
0, 5969
0, 2048
0, 0
0, 0
0, 0
0, 0
0, 14627
0, 96
0, 0
0, 0
0, 0
0, -5617
0, 6338
0, 9266
0, -176
0, 9698
0, 7154
0, -1024
0, 2753
0, 0
0, 336
0, 1120
0, 0
0, -1344
0, -688
0, 0
0, 0
0, 0
0, 1729
0, 7170
0, 23637
0, 6129
0, 6626
0, 8226
0, 816
0, 0
0, 0
0, 0
0, -8050
0, 80
0, 4145
0, 0
0, 208
0, 0
0, -3344
0, -3200
0, -2145
0, 8450
0, 7105
0, 3232
0, -4113
0, 4257
0, 0
0, 0
0, 0
0, 0
0, 432
0, 96
0, 0
0, 0
0, 1728
0, 1056
0, 7169
0, 5793
0, 3953
0, -1152
0, 1889
0, 15475
0, 2496
0, 384
0, 0
0, 7841
0, 0
0, 2896
0, 0
0, 0
0, 0
0, 5569
0, 2497
0, 1072
0, 10771
0, -592
0, 2016
0, 3376
0, 10499
0, -5857
0, 0
0, 0
0, -7553
0, -8018
0, 5617
0, 0
0, 0
0, 0
0, 0
0, 5777
0, 10306
0, 13347
0, 5521
0, 4065
0, -4033
0, -2544
0, 0
0, 0
0, 0
0, -192
0, 896
0, 0
0, 0
0, 0
0, 3936
0, 2848
0, 7185
0, 10115
0, 4961
0, 12643
0, 2561
0, 2881
0, 5009
0, 0
0, 0
0, 3777
0, 0
0, 8658
0, 0
0, 0
0, 0
0, 0
0, 6498
0, 929
0, 5153
0, -1169
0, 416
0, 4705
0, 7090
0, 0
0, 0
0, 0
0, 4305
0, 0
0, 20901
0, 0
0, 688
0, 0
0, -512
0, 5889
0, -6562
0, -1664
0, 4689
0, 9026
0, -1376
0, 3953
0, 0
0, 0
0, 0
0, 10370
0, 3248
0, 0
0, 0
0, 0
0, 0
0, 3825
0, -2848
0, 5809
0, 688
0, 5985
0, 3377
0, 5810
0, 961
0, 0
0, 0
0, 0
0, -5841
0, 7154
0, 0
0, 0
0, 0
0, 0
0, 944
0, 17204
0, 2513
0, 128
0, 7570
0, 8450
0, -496
0, 0
0, 2816
0, 0
0, 2432
0, 2544
0, 5633
0, 0
0, 0
0, 0
0, 0
0, 6321
0, 3233
0, 6706
0, 10419
0, 10034
0, 3009
0, 480
0, 0
0, 0
0, 0
0, 0
0, 928
0, 0
0, 0
0, 0
0, 0
0, 9698
0, 5361
0, 4321
0, 6257
0, 3553
0, 9314
0, 8146
0, 3936
0, 0
0, 0
0, -4401
0, 3600
0, 608
0, 0
0, 128
0, 1152
0, 0
0, -3169
0, 15796
0, 6994
0, -368
0, 6850
0, 19829
0, 19461
0, 880
0, 0
0, 2720
0, 1152
0, 12851
0, 4689
0, 0
0, 0
0, 1968
0, 816
0, 5666
0, 2112
0, -5970
0, 0
0, 5121
0, 465
0, 256
0, 0
0, 0
0, 0
0, 1120
0, 6865
0, 0
0, 912
0, 0
0, 0
0, 6113
0, -3952
0, -10899
0, 7714
0, 6258
0, 1728
0, 3873
0, -7377
0, 0
0, 0
0, 0
0, -3952
0, -4209
0, 0
0, 0
0, 0
0, -3824
0, -2977
0, 3057
0, -5266
0, 10722
0, -432
0, -4946
0, 4225
0, 0
0, 0
0, 0
0, 10354
0, 3568
0, 3921
0, 0
0, 0
0, 2768
0, 0
0, 32
0, 8771
0, 4641
0, -2864
0, 6097
0, 5137
0, 12803
0, 0
0, 0
0, 9874
0, -25030
0, 3505
0, 0
0, 0
0, 0
0, 0
0, -5057
0, 1680
0, 15763
0, 5698
0, 1025
0, 11123
0, 2033
0, 304
0, 0
0, 0
0, 4689
0, -576
0, 7586
0, 608
0, 0
0, -752
0, 0
0, 4529
0, 2145
0, 5009
0, 1633
0, 16836
0, 1584
0, 11155
0, 0
0, 0
0, 0
0, 528
0, 0
0, 8242
0, 0
0, 544
0, 0
0, 0
0, 3121
0, 4770
0, 8482
0, -8226
0, 9955
0, 5089
0, 2864
0, 0
0, 0
0, 0
0, -8706
0, 12179
0, 1088
0, 2480
0, 0
0, 0
0, 2321
0, -3697
0, 10178
0, 4177
0, 9346
0, 3201
0, 4065
0, 9139
0, 0
0, 0
0, 6065
0, 4032
0, 3857
0, 0
0, 0
0, 0
0, 1984
0, 3313
0, 8242
0, 2785
0, -5041
0, 432
0, 128
0, 4274
0, 977
0, 0
0, 0
0, 0
0, 0
0, 7473
0, 0
0, 512
0, 0
0, 0
0, 8546
0, 7137
0, 2112
0, 3089
0, 784
0, 7250
0, -11907
0, 0
0, 0
0, 0
0, 0
0, -2096
0, 0
0, 0
0, 0
0, 0
0, 4017
0, 7586
0, 6401
0, 4401
0, 4753
0, -2065
0, -2129
0, 3569
0, 0
0, -5217
0, 0
0, 0
0, 4929
0, 0
0, 2592
0, 0
0, 6417
0, -2913
0, -768
0, -13204
0, 1152
0, -2080
0, 1809
0, 4577
0, 0
0, 0
0, 5937
0, 2288
0, 304
0, 18676
0, 0
0, 0
0, 0
0, 0
0, 144
0, 5858
0, -2481
0, 6594
0, -224
0, 2785
0, 5793
0, 0
0, 0
0, -1248
0, 0
0, 7569
0, 0
0, 0
0, 0
0, 0
0, -352
0, 7058
0, 6770
0, 9186
0, 753
0, 432
0, -2449
0, 5505
0, 0
0, 0
0, -1920
0, 96
0, -352
0, 0
0, 0
0, 0
0, 0
0, 6914
0, 6034
0, 6065
0, -2641
0, 5585
0, 3681
0, 14420
0, 2832
0, 0
0, 0
0, 9986
0, 3584
0, 3136
0, 0
0, 192
0, 0
0, 0
0, 4353
0, 6354
0, -689
0, 3809
0, 5249
0, -1136
0, -2801
0, 0
0, 0
0, 4913
0, 0
0, 2672
0, 0
0, 0
0, 0
0, 0
0, 752
0, 8802
0, 2544
0, 1984
0, 5009
0, -1584
0, -3841
0, 2144
0, 0
0, 0
0, 0
0, 5937
0, 1216
0, 0
0, 0
0, 1216
0, 0
0, 6081
0, -3520
0, -640
0, -4881
0, -481
0, 13587
0, 5298
0, -1088
0, 8722
0, 0
0, 0
0, 9794
0, 6738
0, 0
0, 0
0, 1328
0, 0
0, 2785
0, 4513
0, 7970
0, 10851
0, 224
0, 23526
0, 2545
0, 0
0, -1024
0, 0
0, 0
0, 2288
0, 192
0, 0
0, 0
0, 0
0, 16
0, 6642
0, -208
0, 4577
0, 6818
0, 4881
0, 6289
0, 10499
0, 144
0, 0
0, 0
0, 4785
0, 1440
0, 0
0, 0
0, 0
0, 0
0, 1905
0, -2080
0, 2096
0, 4897
0, 240
0, 3105
0, 14836
0, 96
0, 0
0, 0
0, 0
0, -5361
0, 6818
0, 0
0, 0
0, 0
0, 0
0, 1200
0, 2576
0, 13668
0, -4529
0, 1329
0, 2352
0, -593
0, 0
0, 0
0, 0
0, 1184
0, 5506
0, 0
0, 0
0, 0
0, 0
0, -22741
0, -1040
0, -7666
0, 7506
0, -6706
0, 1297
0, 3665
0, 6129
0, 0
0, 0
0, 0
0, 0
0, 608
0, 0
0, 0
0, 0
0, 0
0, 4417
0, 2145
0, 2544
0, -3057
0, -2497
0, 1584
0, -2993
0, 0
0, 0
0, 512
0, 4721
0, -5073
0, 20949
0, 0
0, 0
0, 1056
0, 0
0, 1344
0, 6593
0, -2545
0, 2976
0, 5570
0, 5362
0, 176
0, 0
0, 0
0, 0
0, 2384
0, 4737
0, 0
0, 0
0, 0
0, 0
0, 6658
0, 4129
0, 1873
0, 3792
0, 12131
0, -1248
0, 3184
0, 10322
0, 0
0, 1520
0, -3312
0, -3553
0, 64
0, 320
0, 0
0, 0
0, 0
0, 1681
0, 4785
0, 9987
0, 7010
0, 4945
0, -1585
0, 3265
0, 704
0, 0
0, 0
0, 0
0, 8146
0, 5378
0, 0
0, 0
0, 0
0, 0
0, -1248
0, 9890
0, 8610
0, 6705
0, 2993
0, 8498
0, 3857
0, 0
0, 0
0, -4064
0, 0
0, 8770
0, 6961
0, 0
0, 0
0, 0
0, 6737
0, -976
0, 3153
0, -2673
0, 7890
0, 6850
0, -3264
0, -1888
0, 0
0, 1264
0, 0
0, 7233
0, 3281
0, 0
0, 0
0, 0
0, 0
0, 2945
0, 1376
0, 9842
0, 8770
0, 2448
0, 3249
0, 3953
0, 736
0, 0
0, 0
0, 5185
0, -4721
0, 3200
0, 0
0, 0
0, 0
0, 0
0, 6178
0, 6129
0, 0
0, 6978
0, 4849
0, -128
0, 1857
0, 0
0, -2800
0, 7537
0, 6097
0, 6882
0, 6401
0, 0
0, 0
0, 0
0, 0
0, 1152
0, -1776
0, -2081
0, 4577
0, 1809
0, 1569
0, 2161
0, 0
0, 0
0, 1424
0, 2560
0, 5073
0, 0
0, 0
0, 0
0, 2048
0, 3217
0, 7665
0, 640
0, 8162
0, 5874
0, -2689
0, 7458
0, -1185
0, 0
0, 0
0, 0
0, 6257
0, 48
0, 0
0, 0
0, 0
0, 0
0, -2881
0, 6178
0, 0
0, -3505
0, 5938
0, 5681
0, -3664
0, 0
0, -224
0, 0
0, 0
0, 1392
0, 0
0, 0
0, 0
0, 0
0, 9715
0, 5025
0, 3905
0, 12612
0, -448
0, -4497
0, -1600
0, 3713
0, 0
0, 0
0, 1584
0, -2224
0, 6321
0, 0
0, 0
0, 0
0, 0
0, 12963
0, 1760
0, 144
0, 512
0, 6866
0, 9282
0, 3969
0, -768
0, 0
0, 0
0, 3840
0, 4097
0, 10082
0, -336
0, 0
0, 0
0, 1872
0, 2737
0, -1889
0, -13363
0, 5361
0, 9074
0, 1969
0, 2753
0, 0
0, 0
0, -1936
0, 0
0, 4673
0, 18517
0, 0
0, 0
0, 0
0, 1152
0, 2673
0, -3409
0, 2032
0, -128
0, 2880
0, -448
0, 10162
0, 0
0, 0
0, 0
0, 2352
0, 5745
0, 0
0, 0
0, 0
0, 0
0, 1664
0, 4737
0, 5361
0, -8434
0, 6418
0, 11187
0, -384
0, 4785
0, 0
0, 0
0, 3216
0, 7474
0, 1584
0, 0
0, 0
0, 0
0, 0
0, -3297
0, 3505
0, -5474
0, 10226
0, -3777
0, 1616
0, -1697
0, 0
0, 512
0, 0
0, 4513
0, 4641
0, 6066
0, 0
0, 0
0, 0
0, 96
0, 3297
0, -7473
0, 10195
0, 9282
0, 4433
0, -2033
0, 4353
0, 0
0, 0
0, 0
0, 4080
0, 1136
0, 448
0, 0
0, 0
0, 0
0, 480
0, 8658
0, 8962
0, 7025
0, 11587
0, 4321
0, 5953
0, 3616
0, 0
0, 0
0, 0
0, -4609
0, 3297
0, 0
0, 0
0, 160
0, 0
0, 2481
0, 816
0, 5025
0, 2993
0, 5265
0, 5474
0, 16372
0, 16
0, 1840
0, -2048
0, 528
0, 6129
0, 688
0, 0
0, 0
0, 0
0, 1777
0, 4561
0, 688
0, 9427
0, 3136
0, 1041
0, -5217
0, -5441
0, 16
0, 0
0, 0
0, 688
0, 1456
0, 0
0, 0
0, 0
0, 4801
0, 7474
0, 7585
0, 2721
0, 2625
0, 9426
0, 4753
0, -4657
0, 720
0, 0
0, 0
0, 2400
0, 1200
0, 1008
0, 0
0, 0
0, 0
0, 2000
0, 912
0, -4241
0, 352
0, 1904
0, 8210
0, -272
0, -5009
0, -944
0, 5121
0, 0
0, -10226
0, -3872
0, 4593
0, 0
0, 0
0, 0
0, 0
0, 3136
0, 3009
0, -3617
0, -4017
0, 6097
0, -10179
0, 1904
0, 0
0, -4080
0, 11522
0, -6561
0, -4273
0, 1456
0, 0
0, 0
0, 0
0, 4545
0, 5249
0, 8946
0, 11347
0, 4657
0, 6258
0, 6242
0, 6545
0, 0
0, 0
0, 0
0, 9730
0, 256
0, 0
0, 0
0, 368
0, 0
0, -2065
0, -4977
0, 2241
0, -5441
0, 2449
0, 1825
0, 7458
0, 0
0, 0
0, 0
0, 4353
0, 6833
0, 5377
0, 0
0, 0
0, 0
0, 0
0, 11426
0, 11106
0, 3969
0, 13699
0, -416
0, 18116
0, 4577
0, 3328
0, 6546
0, 0
0, 5889
0, 8578
0, 0
0, 0
0, 0
0, 3920
0, 6898
0, 6946
0, 2993
0, 2497
0, 2496
0, 641
0, 4337
0, 6017
0, 4337
0, 240
0, 0
0, 9778
0, 8482
0, 0
0, 0
0, 0
0, -4417
0, 7649
0, 6097
0, 16195
0, 7250
0, 2689
0, 10210
0, 3121
0, 0
0, 1040
0, -3552
0, 0
0, 5153
0, 7138
0, 0
0, -960
0, 0
0, -3056
0, 5825
0, -1616
0, 5474
0, -2737
0, 2689
0, 3745
0, 1281
0, 0
0, 0
0, 0
0, 0
0, 2848
0, 0
0, 0
0, 1296
0, 0
0, 14739
0, -10883
0, 785
0, 2865
0, -4385
0, 4033
0, 3409
0, 896
0, 0
0, 0
0, 0
0, 6658
0, 5649
0, 0
0, 0
0, -416
0, 0
0, 48
0, 3505
0, 8194
0, 4401
0, 256
0, 3681
0, 22229
0, 5889
0, 0
0, 0
0, 16115
0, 11266
0, 6450
0, 0
0, 0
0, 0
0, 0
0, 288
0, 13267
0, 11507
0, 17045
0, 1664
0, 7010
0, 3585
0, 6577
0, 3056
0, 21061
0, 320
0, 4481
0, 96
0, 0
0, 0
0, 2976
0, 3169
0, -6177
0, 832
0, 3921
0, 11058
0, -2113
0, 7249
0, -1264
0, 0
0, 3232
0, -12274
0, 0
0, 1872
0, -672
0, 0
0, 0
0, -4737
0, 7089
0, -4129
0, 2961
0, 11283
0, 6178
0, -2032
0, 2913
0, 0
0, 0
0, -4080
0, 1616
0, 640
0, 14644
0, -51196
0, 0
0, 0
0, 0
0, 3521
0, -4385
0, -8034
0, 688
0, 2721
0, 8402
0, -6978
0, 0
0, 0
0, 0
0, 5633
0, 3808
0, 0
0, 0
0, 0
0, 3360
0, 9442
0, -6065
0, -10210
0, -1745
0, 6658
0, -1200
0, 6129
0, 2144
0, 0
0, 0
0, 112
0, 6385
0, -5185
0, 688
0, 2064
0, 0
0, -4016
0, 2512
0, 8994
0, 1728
0, 9955
0, 2689
0, 12275
0, 11539
0, 128
0, 0
0, 0
0, 2336
0, 2785
0, 5057
0, 0
0, 32
0, 0
0, 0
0, 1073
0, 12787
0, 8466
0, 12483
0, 2016
0, 12915
0, 5409
0, 2944
0, 0
0, 2704
0, 5041
0, 7633
0, 0
0, 0
0, 0
0, 0
0, -3712
0, 4610
0, 128
0, 3393
0, 272
0, -1664
0, 4737
0, 4849
0, 0
0, 0
0, 6529
0, 3584
0, 8610
0, 0
0, 0
0, 0
0, 448
0, -2273
0, 8994
0, 14484
0, -6673
0, 3456
0, 7042
0, -2208
0, 2448
0, 4273
0, 0
0, -2464
0, 7281
0, 5794
0, 0
0, 0
0, 0
0, 0
0, 736
0, 5681
0, 5169
0, 672
0, 5265
0, 1585
0, 0
0, -1104
0, 0
0, -6097
0, 1889
0, 528
0, 864
0, 608
0, 1504
0, -1056
0, 8402
0, -5409
0, 1824
0, 2816
0, 144
0, 11443
0, 2752
0, 0
0, 0
0, -5313
0, 0
0, 5506
0, 720
0, 1072
0, 2368
0, 240
0, 6594
0, 9330
0, 2465
0, 6641
0, 7553
0, 2497
0, 3153
0, 4225
0, 0
0, 0
0, 7809
0, 10002
0, 3665
0, 1248
0, 928
0, 0
0, 144
0, 576
0, 3537
0, -4689
0, -5553
0, -224
0, 3217
0, -560
0, 0
0, 0
0, 3840
0, -176
0, -2192
0, 0
0, 0
0, 832
0, 912
0, -1152
0, 960
0, 528
0, 5601
0, 10339
0, 18101
0, 6866
0, 528
0, 0
0, 0
0, -4401
0, 6321
0, 2032
0, 1216
0, 0
0, 1216
0, 0
0, 480
0, 2368
0, 1600
0, 4433
0, 1377
0, -5553
0, -1504
0, 1472
0, 2416
0, -528
0, 0
0, 432
0, 3937
0, 1536
0, 752
0, 608
0, 0
0, 7153
0, -305
0, 11347
0, 8450
0, 961
0, 5537
0, 3505
0, 0
0, 0
0, 0
0, 6193
0, 11058
0, 0
0, 0
0, 0
0, 3264
0, 6257
0, -10098
0, 2625
0, -4609
0, 6593
0, 1152
0, 16228
0, 1328
0, 0
0, 0
0, 0
0, 304
0, 12083
0, 1296
0, 864
0, 624
0, 224
0, 2016
0, 3248
0, 10339
0, -705
0, -6178
0, 2000
0, 736
0, 2513
0, 0
0, 0
0, 0
0, -1136
0, 3841
0, 1712
0, 768
0, 0
0, 2208
0, 4865
0, 7698
0, 2465
0, 3601
0, 10755
0, 0
0, -3009
0, 0
0, 0
0, 3632
0, 0
0, -2033
0, 320
0, 2016
0, 576
0, 704
0, 5825
0, 4753
0, 12307
0, -5825
0, 3969
0, 2081
0, 7602
0, 1377
0, 0
0, 0
0, 2416
0, -5985
0, 5041
0, 1088
0, 688
0, 1088
0, 3040
0, 4689
0, 6977
0, -7505
0, 6257
0, 1793
0, -11267
0, 5538
0, -5537
0, 0
0, 0
0, 0
0, 5457
0, 7345
0, 1488
0, 752
0, 2768
0, 1504
0, -5585
0, 5170
0, -2449
0, -2049
0, 2401
0, 512
0, 3553
0, 0
0, 0
0, 0
0, 0
0, -4497
0, 1760
0, 1024
0, 2224
0, 288
0, 5441
0, 7009
0, -4369
0, 2400
0, 8418
0, 7090
0, 1921
0, 1344
0, 0
0, 0
0, 1568
0, 0
0, 5633
0, 0
0, 464
0, 0
0, 0
0, 1792
0, 80
0, 3441
0, 2480
0, 1601
0, 3168
0, 7121
0, 6962
0, 0
0, 7921
0, 16
0, -1072
0, 3857
0, 1248
0, 1568
0, 0
0, 0
0, 2624
0, 4993
0, 6513
0, -1584
0, 2624
0, 3201
0, -240
0, 0
0, 9026
0, 0
0, 3184
0, 9282
0, 0
0, 2432
0, 1680
0, 1424
0, 2384
0, 5601
0, 7746
0, -10163
0, 4097
0, 4802
0, -1024
0, 2144
0, 0
0, 0
0, -3905
0, -4337
0, 1472
0, 976
0, 128
0, 352
0, 0
0, 3073
0, 2464
0, -4241
0, 4625
0, 2192
0, -2913
0, 2657
0, -224
0, 0
0, 0
0, 4417
0, 5425
0, 3649
0, 1904
0, 800
0, 1504
0, 0
0, 3649
0, 5569
0, -6658
0, -881
0, 5522
0, 4081
0, 5473
0, 0
0, 0
0, 8434
0, -5345
0, 4353
0, 1568
0, 672
0, 2048
0, 240
0, 6145
0, 5713
0, 913
0, 2113
0, 8066
0, 1968
0, 7329
0, 960
0, 0
0, 0
0, 10370
0, 3424
0, 3233
0, 560
0, 416
0, 240
0, 192
0, 3329
0, 5074
0, 897
0, 7394
0, 4337
0, 6418
0, 15204
0, 3888
0, 0
0, 0
0, 0
0, 0
0, 10691
0, 0
0, 0
0, 736
0, -304
0, -2977
0, 3249
0, -11523
0, -9507
0, 769
0, -624
0, 9315
0, 2256
0, -80
0, 2224
0, 2272
0, -2240
0, 5250
0, 0
0, 720
0, 0
0, 176
0, 3489
0, 1952
0, 6385
0, 1872
0, 608
0, 2385
0, 1392
0, 3568
0, 0
0, 1008
0, 7601
0, -9906
0, 0
0, 0
0, 320
0, 1616
0, 3281
0, 5409
0, 12259
0, 9202
0, 6370
0, 4897
0, 2625
0, 12051
0, 0
0, 0
0, 0
0, -6642
0, 4385
0, 416
0, 1120
0, 304
0, 608
0, 112
0, -224
0, -4129
0, 5121
0, 5250
0, 5714
0, 208
0, 0
0, 752
0, 0
0, 0
0, 7810
0, 0
0, 0
0, 2048
0, 0
0, 3328
0, 3921
0, -48
0, -3601
0, 3841
0, 288
0, 2289
0, 4145
0, 5489
0, 0
0, -1696
0, 768
0, 6242
0, 32
0, 976
0, 0
0, 1488
0, -864
0, 3872
0, 10179
0, 7217
0, 2320
0, -2049
0, 4401
0, 2480
0, 0
0, 3504
0, 0
0, 6929
0, 3329
0, 224
0, -80
0, 1296
0, 0
0, 6705
0, 2577
0, 14147
0, 4465
0, 1345
0, 4097
0, 128
0, 0
0, 0
0, 0
0, 4817
0, -9170
0, 1600
0, 0
0, 0
0, 1680
0, 0
0, 4353
0, 1872
0, 2464
0, -5105
0, 4177
0, 2480
0, 5889
0, 0
0, 0
0, 2209
0, -944
0, 7537
0, -144
0, 224
0, 912
0, 0
0, 1296
0, -1888
0, -7826
0, -10818
0, -6753
0, -144
0, -3985
0, 7634
0, 6465
0, 7361
0, 0
0, 2416
0, 14675
0, 1136
0, 1840
0, 0
0, -3552
0, 18340
0, 6401
0, 7186
0, 6882
0, 17876
0, 4001
0, 5810
0, 0
0, 2800
0, 0
0, 12242
0, 4513
0, 7282
0, 736
0, 1264
0, -2576
0, 2993
0, -160
0, 5810
0, 560
0, 3825
0, 8418
0, 336
0, 8834
0, 0
0, 0
0, 0
0, -992
0, -6993
0, 432
0, 0
0, 0
0, 2016
0, -8914
0, 2880
0, 1904
0, 6465
0, 992
0, 2305
0, 976
0, 12227
0, 3072
0, 0
0, 1872
0, 368
0, 12980
0, 1616
0, 0
0, 1120
0, 0
0, 1713
0, 4257
0, -9027
0, 561
0, 1744
0, 4065
0, 3809
0, 0
0, 0
0, 0
0, 0
0, 10643
0, 6497
0, 0
0, 0
0, 0
0, -47867
0, 6210
0, 993
0, -256
0, 5074
0, 4289
0, 6337
0, 16276
0, 0
0, 0
0, 0
0, -128
0, 10434
0, 2720
0, 640
0, 5425
0, 0
0, 1985
0, 5794
0, -3809
0, 720
0, 3073
0, 3985
0, -13731
0, 112
0, 0
0, 0
0, 3920
0, 0
0, 5425
0, 432
0, 0
0, 3456
0, 1392
0, 128
0, 4081
0, 12291
0, 1505
0, 7201
0, 7074
0, 4577
0, 0
0, 0
0, 1968
0, 0
0, 4530
0, 4721
0, 112
0, 112
0, 224
0, 64
0, 528
0, 3793
0, -5922
0, 3169
0, 11907
0, 13187
0, 2128
0, 3968
0, 0
0, 3408
0, 10642
0, 12179
0, 0
0, 2480
0, 1280
0, 2192
0, 9539
0, 8098
0, 8930
0, 8402
0, -2817
0, 6050
0, 15539
0, -2849
0, 0
0, 0
0, 7217
0, 0
0, -1120
0, 0
0, 640
0, 0
0, 0
0, 977
0, 4337
0, 2416
0, 1345
0, 528
0, 2848
0, -4081
0, 0
0, 0
0, 3584
0, 0
0, -1441
0, 23125
0, 480
0, 0
0, 0
0, -128
0, 4129
0, 2577
0, 4513
0, -3105
0, 7586
0, -1088
0, -1457
0, -8177
0, 0
0, 3584
0, 432
0, 7537
0, 480
0, 336
0, 0
0, 688
0, 2912
0, 4529
0, 7586
0, 50236
0, 3537
0, 10962
0, 6753
0, 3393
0, 0
0, 2368
0, 592
0, 0
0, 1568
0, 1760
0, 0
0, 2112
0, 0
0, -1024
0, 2929
0, 3441
0, -416
0, 5682
0, 10402
0, 5825
0, 0
0, 1536
0, 0
0, -8177
0, -5745
0, 6210
0, 0
0, 4369
0, 256
0, 352
0, -2225
0, 3489
0, -4769
0, -2256
0, 6818
0, 3265
0, 4465
0, 0
0, 0
0, 1248
0, 6657
0, 1392
0, 0
0, 512
0, 0
0, 4817
0, 4610
0, -816
0, -5665
0, -4241
0, 7106
0, 11059
0, 1361
0, -64
0, 0
0, 0
0, 0
0, 6401
0, -2177
0, 224
0, 1584
0, 1600
0, 768
0, 9106
0, 4481
0, -6145
0, 4449
0, 3761
0, 14579
0, -1616
0, 5761
0, 0
0, 0
0, 10082
0, 64
0, 7889
0, 0
0, 3713
0, 0
0, 0
0, 912
0, -128
0, 4209
0, -7442
0, 640
0, -112
0, 3169
0, 0
0, 0
0, 0
0, -1264
0, 368
0, 496
0, 1728
0, 0
0, 0
0, -5025
0, 64
0, -2017
0, 8258
0, 128
0, 12163
0, 4497
0, -3441
0, 0
0, -1280
0, 0
0, -896
0, 5585
0, 0
0, 176
0, 832
0, 0
0, -1040
0, 3585
0, 8258
0, 1728
0, -1808
0, 4641
0, -4225
0, 0
0, 0
0, 0
0, 0
0, -5730
0, 4977
0, 256
0, 0
0, 1360
0, 6353
0, -4417
0, -304
0, 3040
0, -944
0, 4753
0, 2849
0, 1216
0, 0
0, 0
0, 0
0, -5601
0, 112
0, 16
0, 64
0, -32
0, 192
0, 5585
0, -80
0, 6338
0, 4834
0, 2993
0, 3985
0, 1744
0, 2945
0, 0
0, 0
0, -2144
0, 12931
0, 7970
0, 1296
0, -768
0, 0
0, -3248
0, 3409
0, -2929
0, 8674
0, -720
0, 5633
0, 6274
0, 4929
0, 2880
0, 0
0, 0
0, 13059
0, 5617
0, 7506
0, 0
0, 288
0, 512
0, 3152
0, -4097
0, 1153
0, 5105
0, 3233
0, -400
0, 512
0, 2561
0, 0
0, 0
0, 2928
0, 0
0, 1137
0, 912
0, 800
0, 2256
0, 0
0, 6081
0, 6434
0, 1600
0, 576
0, 1376
0, 3825
0, -1920
0, 3104
0, 0
0, 0
0, 5905
0, -1008
0, 6642
0, 0
0, 0
0, 688
0, 2384
0, 5393
0, 12515
0, 2305
0, 8530
0, -2897
0, 3585
0, 3665
0, 0
0, 0
0, -3552
0, 0
0, -3376
0, 5025
0, 16
0, 704
0, 0
0, 0
0, 5249
0, 5698
0, -128
0, -2832
0, 7377
0, 4209
0, 1056
0, 0
0, 0
0, 1280
0, -1968
0, -480
0, 0
0, 1504
0, 0
0, 1008
0, 6737
0, 3217
0, 2593
0, 2256
0, 3825
0, 2865
0, 480
0, 17461
0, -2880
0, 2816
0, 8658
0, 0
0, 8674
0, 4177
0, 240
0, 2960
0, 0
0, 8706
0, -1665
0, -8226
0, 12820
0, 5778
0, -1441
0, 8146
0, 0
0, 2800
0, 0
0, -1600
0, -1728
0, 1920
0, 0
0, 1040
0, 448
0, 0
0, 2785
0, 1312
0, 5393
0, 2032
0, 7282
0, -161
0, 4545
0, 0
0, 0
0, 0
0, 0
0, 12163
0, 256
0, 0
0, 736
0, 0
0, 416
0, 8546
0, -4081
0, -224
0, 8210
0, 4833
0, -14308
0, 1920
0, 0
0, 496
0, 5393
0, -3680
0, 512
0, 0
0, 608
0, 0
0, 0
0, 3361
0, 4177
0, 3937
0, 6914
0, 8275
0, 2432
0, 16372
0, 6321
0, 0
0, 0
0, 0
0, -6401
0, 8146
0, 0
0, 0
0, 5121
0, 896
0, 4113
0, 1537
0, -1137
0, 960
0, 6002
0, 1041
0, 48
0, 0
0, 1248
0, 5761
0, 0
0, 7025
0, 0
0, 1888
0, 0
0, 672
0, -9250
0, 2288
0, 5409
0, 3665
0, 6466
0, 3473
0, -4321
0, -960
0, 0
0, 0
0, -2224
0, 0
0, 10467
0, 976
0, 0
0, 3936
0, 3360
0, 2065
0, -1024
0, 3008
0, 11987
0, 881
0, 2032
0, 5202
0, 0
0, 0
0, -112
0, 256
0, 0
0, 3105
0, 0
0, 1712
0, 0
0, 0
0, 5681
0, -10995
0, 14916
0, 4225
0, 13139
0, 5617
0, 5089
0, 0
0, 0
0, 0
0, -640
0, 2032
0, 0
0, 336
0, 6113
0, 2705
0, 1792
0, 3905
0, -1472
0, -1825
0, 1360
0, 3249
0, -513
0, 2337
0, 0
0, 5889
0, 1888
0, 9138
0, 11987
0, 528
0, 0
0, 0
0, 0
0, 6322
0, 8770
0, 8210
0, -7409
0, 6306
0, 3169
0, -2529
0, 800
0, 0
0, 2016
0, 2848
0, 864
0, 8962
0, 1040
0, 192
0, 3584
0, 896
0, 1857
0, 6337
0, 576
0, 2257
0, 5329
0, 912
0, 2433
0, 0
0, 0
0, 0
0, 5681
0, 3584
0, 0
0, 576
0, 0
0, 0
0, -560
0, 8610
0, 1249
0, 6561
0, 1761
0, 816
0, 10722
0, 6161
0, 0
0, 0
0, 720
0, 4753
0, 5761
0, 0
0, 944
0, 0
0, 0
0, 3313
0, 5969
0, 1344
0, 6898
0, 7170
0, 1377
0, -4449
0, 2720
0, 0
0, 4401
0, 1088
0, 3696
0, 6866
0, 144
0, 3584
0, 0
0, 160
0, 11347
0, 8866
0, 6561
0, 8386
0, 1808
0, -3441
0, 4177
0, 0
0, 0
0, 0
0, 7249
0, 224
0, 0
0, 0
0, 0
0, 0
0, 4305
0, 1889
0, 4465
0, -1600
0, 3761
0, 4449
0, 4658
0, -1040
0, 0
0, 0
0, 0
0, 0
0, -880
0, 2208
0, 0
0, 1504
0, 1328
0, 3553
0, -608
0, 1952
0, 20709
0, -561
0, 7346
0, 3329
0, -336
0, 1360
0, 0
0, 0
0, 4609
0, 8082
0, 0
0, 1088
0, 384
0, 0
0, -4065
0, 2481
0, -1216
0, 14003
0, 5666
0, 3073
0, 3441
0, 3440
0, 0
0, -496
0, -9346
0, 256
0, 0
0, 1888
0, 0
0, 3600
0, 4945
0, -4129
0, 3072
0, -1168
0, 8290
0, 4689
0, -7458
0, 6402
0, 0
0, 0
0, 0
0, 0
0, 5889
0, 0
0, 912
0, 0
0, 336
0, 3441
0, -3969
0, 4017
0, -5665
0, 1616
0, -192
0, 4498
0, 6306
0, 0
0, 4353
0, -624
0, 8898
0, 7474
0, 2016
0, 0
0, 4337
0, 976
0, -1200
0, -1824
0, 4385
0, 1440
0, -912
0, 2257
0, 12755
0, 0
0, 0
0, 0
0, 3888
0, 8770
0, 10226
0, 864
0, 512
0, 0
0, 3521
0, 5681
0, 2657
0, -4849
0, 9970
0, -4305
0, 3857
0, 21174
0, -880
0, 0
0, 1008
0, -5761
0, 848
0, 0
0, 0
0, 0
0, 0
0, 3409
0, 1760
0, 4626
0, 6210
0, 2641
0, 3889
0, 800
0, 176
0, 0
0, 0
0, 1792
0, 2000
0, 7746
0, 0
0, 736
0, 0
0, 1552
0, 896
0, -801
0, -640
0, 8610
0, 6754
0, 12563
0, 4593
0, 0
0, 0
0, 0
0, 0
0, 7090
0, 4561
0, 0
0, 272
0, -1408
0, 6498
0, 4593
0, -7170
0, 4689
0, 5441
0, -3825
0, 4897
0, 2112
0, 0
0, 0
0, 0
0, -1136
0, 7378
0, 208
0, 0
0, 2496
0, 736
0, 1248
0, 4209
0, 224
0, -4225
0, -7105
0, 1121
0, 7345
0, 4241
0, 0
0, 0
0, 0
0, 1040
0, 9426
0, 0
0, 832
0, 0
0, 0
0, -1744
0, 6338
0, 10146
0, 8898
0, -1424
0, -11970
0, 3777
0, 0
0, 4593
0, 2544
0, 10162
0, 5554
0, 0
0, 688
0, 608
0, 0
0, 2240
0, -4593
0, -2353
0, 10610
0, 1361
0, 8946
0, 10530
0, 6434
0, 0
0, 0
0, 0
0, 1776
0, -2369
0, 0
0, 1872
0, 0
0, 48
0, 3472
0, 272
0, 816
0, 3249
0, 6002
0, -1425
0, -6594
0, 2801
0, 0
0, 0
0, 0
0, -3312
0, 8882
0, 0
0, 64
0, 640
0, 0
0, 8322
0, 4113
0, -3857
0, -16
0, 176
0, 800
0, 5601
0, 0
0, -3264
0, 0
0, 0
0, 144
0, 26758
0, 0
0, 592
0, 864
0, 0
0, 4625
0, 5521
0, 5778
0, 672
0, 8466
0, 4705
0, 16388
0, 0
0, 0
0, 0
0, -496
0, 3136
0, 832
0, 0
0, 352
0, 1952
0, 7185
0, 5601
0, -1296
0, -2480
0, 4097
0, 6738
0, 1361
0, 3953
0, 0
0, 0
0, 3857
0, -1857
0, 4401
0, 0
0, 1008
0, 1488
0, 864
0, 7105
0, 4081
0, -960
0, 9202
0, 9331
0, -320
0, -1440
0, 0
0, 0
0, 8690
0, 2352
0, 4865
0, 6642
0, 1600
0, 0
0, 0
0, 5457
0, 945
0, 6401
0, -11875
0, -3233
0, 8722
0, -14467
0, 21157
0, 0
0, 0
0, 0
0, -2160
0, -689
0, 592
0, 128
0, 2208
0, 0
0, 4897
0, 5137
0, 2401
0, 4241
0, 10867
0, 6498
0, 3585
0, -4977
0, 0
0, 0
0, 0
0, -3024
0, 4001
0, 2464
0, 112
0, 0
0, 6129
0, 4913
0, 3601
0, 3761
0, 13251
0, 4801
0, 1713
0, 2112
0, -2032
0, 0
0, 0
0, -1584
0, -9138
0, 3985
0, 0
0, 0
0, -256
0, 0
0, -4401
0, 7761
0, 18484
0, -352
0, 80
0, 672
0, 16788
0, 3808
0, 0
0, 11506
0, -416
0, 3409
0, 784
0, 0
0, 96
0, 0
0, 4737
0, 2736
0, 352
0, 5857
0, 2801
0, 1760
0, 9730
0, 6017
0, 0
0, 0
0, 0
0, 3520
0, 4274
0, 400
0, 0
0, 208
0, 0
0, 11395
0, 3153
0, -4385
0, 22949
0, 224
0, 7506
0, 3393
0, 0
0, 0
0, 0
0, 272
0, -5649
0, 2513
0, 48
0, 80
0, 0
0, 480
0, 6946
0, 2592
0, 22277
0, 15748
0, 2864
0, 16884
0, 4609
0, 0
0, 0
0, 11202
0, -13315
0, 2176
0, 0
0, 896
0, 1680
0, 416
0, 4113
0, 1680
0, -5361
0, 6546
0, 1729
0, 4881
0, 12483
0, 3633
0, 0
0, 0
0, 4129
0, 1648
0, 3057
0, 3008
0, 1040
0, 4385
0, 0
0, 2033
0, 2241
0, 10994
0, -3393
0, -5922
0, 2561
0, 20805
0, 0
0, 2032
0, 0
0, 11330
0, 1200
0, 5394
0, 512
0, 256
0, 1920
0, 1296
0, -1632
0, 2736
0, 1665
0, 4914
0, 9155
0, 3025
0, 1665
0, 0
0, 6577
0, -1328
0, -2176
0, -672
0, 0
0, 1984
0, 0
0, 1376
0, 6146
0, 3665
0, 3041
0, -1984
0, 5329
0, -1857
0, -7105
0, -624
0, 0
0, 8177
0, -9522
0, 1712
0, 11971
0, 544
0, 160
0, 0
0, 0
0, -2048
0, 3216
0, 896
0, 15156
0, 4705
0, -6881
0, 6354
0, 2944
0, 0
0, -1008
0, 3072
0, 1984
0, 18308
0, 0
0, 0
0, 2993
0, 0
0, 8867
0, 3921
0, -7458
0, -1216
0, 7906
0, 2368
0, 7250
0, 0
0, 0
0, 7857
0, 416
0, -16
0, 0
0, 352
0, -320
0, 1904
0, 2944
0, 1456
0, 4369
0, 7858
0, -2721
0, 6114
0, 1696
0, 3201
0, 624
0, 0
0, 0
0, 6369
0, 816
0, 288
0, 0
0, 3456
0, 0
0, 704
0, -4113
0, 2913
0, -752
0, 2081
0, 32
0, -113
0, 2912
0, 0
0, 0
0, 1888
0, 3712
0, 4562
0, 0
0, 240
0, 0
0, 0
0, -2320
0, 7009
0, 6802
0, 3489
0, 10803
0, 7458
0, 10034
0, 0
0, 0
0, 0
0, 0
0, 5217
0, 1744
0, 0
0, 336
0, 0
0, 5041
0, 3008
0, -880
0, 6129
0, 5522
0, 3376
0, 11651
0, 5297
0, 0
0, 0
0, 1744
0, -11891
0, 8290
0, 0
0, 0
0, 128
0, 1552
0, 3265
0, 5281
0, 8578
0, 3889
0, 6241
0, 12723
0, 11491
0, 0
0, 0
0, 0
0, 0
0, 0
0, 21333
0, 0
0, 0
0, 0
0, 0
0, -2449
0, -1520
0, 5521
0, -2641
0, 2416
0, 10483
0, 6113
0, 0
0, 0
0, 0
0, 0
0, 10146
0, 0
0, 0
0, 1664
0, 0
0, 6577
0, 3089
0, 1424
0, -1376
0, 8498
0, 2881
0, 12691
0, 6850
0, 0
0, 0
0, 4865
0, -5537
0, 480
0, 1040
0, 3136
0, 3008
0, 0
0, 9058
0, -2832
0, 7922
0, 4897
0, 6962
0, 5842
0, 2640
0, 3856
0, 0
0, 0
0, -112
0, -592
0, 3377
0, 528
0, 0
0, 272
0, 496
0, 3585
0, 4689
0, -1088
0, 2737
0, 5362
0, 7041
0, 10595
0, 0
0, 0
0, 0
0, 3472
0, 704
0, 0
0, 272
0, 0
0, 1520
0, 2976
0, 1729
0, -944
0, -5057
0, 4785
0, 8114
0, 10819
0, 2513
0, 0
0, 0
0, 3408
0, 7633
0, -3777
0, 1072
0, 0
0, 0
0, 0
0, 7986
0, -256
0, -2753
0, 7890
0, -833
0, 5313
0, -1712
0, -4753
0, 0
0, 4337
0, 0
0, 4897
0, 3873
0, 0
0, 672
0, 0
0, 640
0, 4865
0, 6914
0, -3921
0, 4769
0, -5570
0, 208
0, 2800
0, 0
0, 0
0, 768
0, 3489
0, 9506
0, 0
0, 0
0, 2032
0, 976
0, 4673
0, 5937
0, 5905
0, 880
0, 3072
0, 608
0, 688
0, 1552
0, -1344
0, 0
0, 0
0, 8081
0, 7969
0, 2320
0, 0
0, 3056
0, 0
0, 3905
0, 4993
0, 7394
0, -7282
0, 1521
0, -160
0, 2993
0, -1584
0, 0
0, 0
0, 2848
0, 3680
0, 6674
0, 656
0, 0
0, 1104
0, 1408
0, 417
0, -4113
0, -1952
0, -6386
0, -3281
0, -1552
0, 3441
0, 0
0, 0
0, 0
0, -1504
0, 1376
0, 0
0, 2608
0, 1136
0, 2048
0, 2032
0, 720
0, 5121
0, 14180
0, 3248
0, 5970
0, -752
0, -5393
0, 0
0, -4849
0, 2384
0, 2304
0, 3185
0, 416
0, 0
0, 0
0, 192
0, 992
0, -3329
0, 3009
0, 14387
0, 0
0, 8018
0, -5634
0, -1793
0, 0
0, 2528
0, -4080
0, 2384
0, 3488
0, 1232
0, 304
0, 0
0, 688
0, 7954
0, 2593
0, 2721
0, 11330
0, 5201
0, 5073
0, 8722
0, 0
0, 0
0, 0
0, -2081
0, 7234
0, 0
0, 1632
0, 0
0, -1952
0, -8978
0, 10099
0, 10434
0, 3169
0, 8306
0, 400
0, 2593
0, 3761
0, 0
0, -192
0, 0
0, -1008
0, 7218
0, 2256
0, 0
0, 0
0, 1985
0, -10978
0, 3632
0, 5633
0, 1136
0, 5057
0, 3073
0, 15620
0, 2288
0, 0
0, 0
0, 0
0, 5681
0, 2513
0, 0
0, 0
0, 0
0, -3552
0, -432
0, -6322
0, -4913
0, -7874
0, 1808
0, -2513
0, -256
0, 0
0, 0
0, 0
0, 0
0, -2304
0, 0
0, 32
0, 2480
0, 0
0, 544
0, -2272
0, 7362
0, -2256
0, 3073
0, 10770
0, 8659
0, 5633
0, 0
0, 0
0, 3360
0, -5457
0, 7346
0, 464
0, 1312
0, 0
0, 3792
0, 2193
0, 5153
0, 10467
0, 7842
0, 7298
0, 3505
0, 15348
0, -609
0, -7153
0, -3424
0, 640
0, -880
0, 4465
0, 0
0, 640
0, 1216
0, 0
0, -3552
0, 3217
0, 2464
0, 10546
0, 1296
0, -1616
0, 6770
0, 0
0, 0
0, 3952
0, -2816
0, 3057
0, 1312
0, 1744
0, 0
0, 944
0, 0
0, 1184
0, -3569
0, -8482
0, 4450
0, -1856
0, 3441
0, -992
0, 0
0, 0
0, 1024
0, 2176
0, 6657
0, 1296
0, 528
0, 0
0, 0
0, 929
0, 4017
0, 880
0, -2816
0, 6130
0, 2864
0, -80
0, 2337
0, 0
0, 0
0, 2048
0, 0
0, 176
0, 0
0, 1120
0, 0
0, 4993
0, 2337
0, 5137
0, -2512
0, 5345
0, 3313
0, 3873
0, 3649
0, 0
0, 0
0, 2864
0, -4930
0, 7953
0, 256
0, 0
0, 592
0, -3904
0, 2129
0, -256
0, -544
0, 5601
0, 336
0, 13316
0, -2433
0, 2624
0, 0
0, 48
0, 0
0, 3072
0, 4449
0, 0
0, 1552
0, 0
0, 576
0, 3137
0, -3377
0, 3393
0, 10130
0, 8562
0, 7634
0, 5153
0, 80
0, 1776
0, 0
0, 3072
0, 0
0, 13012
0, 2736
0, 0
0, -80
0, 0
0, 768
0, 10738
0, 288
0, 5954
0, 3489
0, 9490
0, 224
0, 0
0, 304
0, 0
0, 2816
0, -5489
0, 0
0, -400
0, -160
0, 0
0, 2416
0, 1489
0, 7794
0, 7954
0, -1712
0, 2577
0, 15380
0, 1216
0, 0
0, 0
0, 2640
0, -2304
0, 6898
0, -80
0, 0
0, 0
0, 0
0, -64
0, 656
0, 1024
0, 3841
0, 8002
0, 2897
0, 12451
0, -4337
0, 1040
0, 0
0, 7169
0, 7090
0, 1665
0, 928
0, 1328
0, 0
0, 0
0, 8994
0, 4193
0, -3425
0, -528
0, 2113
0, 8386
0, -480
0, 0
0, 0
0, 0
0, 0
0, 11443
0, 4530
0, 1088
0, 560
0, 0
0, 3649
0, -1280
0, 16
0, 4545
0, 14052
0, 352
0, 288
0, 19589
0, 0
0, 0
0, 832
0, 464
0, 3009
0, 48
0, 0
0, 0
0, 4048
0, 5777
0, 1185
0, -2720
0, -2625
0, 1633
0, 3137
0, 12803
0, 2721
0, 0
0, 0
0, 0
0, 8754
0, 5521
0, 0
0, 0
0, 0
0, 0
0, 5442
0, 3841
0, 1792
0, -6561
0, 2097
0, 8002
0, -272
0, 0
0, 432
0, 0
0, 0
0, 1777
0, 0
0, 0
0, 0
0, 1472
0, 5809
0, -496
0, 6258
0, 9187
0, 7378
0, -4977
0, 2592
0, -4625
0, 0
0, 0
0, 8097
0, 2464
0, -5586
0, 0
0, 1792
0, 304
0, 0
0, -7026
0, 1216
0, -2785
0, 6369
0, 1841
0, 6594
0, 944
0, -1425
0, 0
0, 0
0, -192
0, 12226
0, 7602
0, 304
0, 0
0, 1728
0, 0
0, -448
0, -2753
0, 5873
0, 13764
0, 3441
0, 6721
0, 960
0, 864
0, 0
0, 0
0, 3712
0, -3041
0, 5186
0, 0
0, 0
0, 624
0, -11666
0, -528
0, -240
0, -9651
0, 1824
0, 4705
0, 5954
0, 5393
0, 0
0, 0
0, 0
0, 10258
0, 7825
0, 1552
0, 0
0, 0
0, 64
0, 5777
0, 5570
0, -5074
0, -2368
0, 4737
0, -1856
0, 1232
0, 11203
0, 1024
0, 0
0, 0
0, 0
0, 5873
0, 208
0, -576
0, 2480
0, 4081
0, 208
0, -3297
0, -1520
0, 929
0, 10675
0, 560
0, -16
0, 0
0, 0
0, 0
0, 4449
0, -3361
0, 4849
0, 0
0, 384
0, 96
0, 3057
0, 336
0, -528
0, -1409
0, 32
0, 2656
0, 4881
0, 4033
0, 0
0, 0
0, 2480
0, 7570
0, 3376
0, 1072
0, 80
0, 32
0, 0
0, 5345
0, 1665
0, 5026
0, 8514
0, 304
0, 4385
0, 7874
0, 4817
0, 0
0, 0
0, 400
0, 15764
0, 512
0, 0
0, -224
0, 0
0, 2352
0, 3184
0, 3985
0, -224
0, -4257
0, -9250
0, 7202
0, 11699
0, 0
0, 0
0, 0
0, 0
0, 272
0, 6561
0, 0
0, 1392
0, 128
0, 1536
0, 2065
0, -7042
0, 4241
0, -11427
0, 6385
0, 5682
0, -1009
0, 0
0, 0
0, 3408
0, -2305
0, 10307
0, 0
0, 272
0, 0
0, 0
0, 4049
0, 8627
0, 15507
0, 9618
0, 4738
0, -2737
0, 3137
0, 1297
0, 0
0, 0
0, 0
0, 0
0, 3761
0, 0
0, 0
0, 0
0, 0
0, 7378
0, 768
0, 0
0, -1456
0, 3729
0, 2145
0, -544
0, 0
0, -4016
0, 0
0, 704
0, -2512
0, 2880
0, 0
0, 0
0, 0
0, 3184
0, -4641
0, 1057
0, -7378
0, -5266
0, 3697
0, 2096
0, -6194
0, 0
0, 0
0, 0
0, 0
0, 6401
0, 1600
0, 0
0, 0
0, 3232
0, 5057
0, 11011
0, 2561
0, 5585
0, 48
0, 3217
0, 1761
0, 112
0, 3488
0, 256
0, 0
0, 12707
0, 10194
0, 224
0, 48
0, 1200
0, 144
0, 3969
0, 5394
0, 5281
0, -9762
0, 769
0, -3985
0, -624
0, 3056
0, 0
0, 0
0, 0
0, 5153
0, 5554
0, 880
0, 1152
0, 3296
0, 3776
0, -8034
0, -1856
0, 3185
0, -3505
0, 9954
0, 496
0, -2833
0, 800
0, 0
0, 3520
0, 0
0, 2865
0, 0
0, -560
0, 0
0, 2944
0, 4081
0, 3329
0, 7378
0, 1232
0, 3169
0, 1392
0, 2017
0, 4801
0, -2672
0, -6641
0, -4321
0, 2944
0, 13315
0, 0
0, 1984
0, 0
0, -2384
0, -3105
0, 4145
0, 8066
0, 13860
0, 5522
0, 6322
0, 25398
0, 0
0, 0
0, -10114
0, -848
0, 4881
0, 7074
0, 0
0, 240
0, 0
0, 0
0, 1024
0, -4209
0, 7186
0, 9939
0, 5042
0, 9923
0, 10178
0, 0
0, 0
0, -3632
0, 0
0, 5298
0, 0
0, 0
0, 0
0, 4401
0, 5761
0, 10898
0, 784
0, -3649
0, 3777
0, 9747
0, 1969
0, 1233
0, 0
0, 560
0, 0
0, 16148
0, 6609
0, 2400
0, 3216
0, 0
0, 464
0, 2512
0, 5922
0, 2529
0, -608
0, 2785
0, 80
0, 5122
0, 3328
0, 0
0, 0
0, 0
0, 3825
0, 6546
0, 0
0, 0
0, 0
0, 0
0, 1168
0, 3793
0, 2993
0, 8514
0, 4049
0, -464
0, 3120
0, 0
0, 0
0, 0
0, 0
0, 7713
0, 0
0, 0
0, 2608
0, 976
0, 4993
0, 6801
0, 10947
0, 7970
0, 1232
0, 6146
0, -4497
0, 2800
0, 0
0, 0
0, 0
0, 2272
0, 993
0, 1152
0, 0
0, 224
0, 0
0, 6210
0, 9026
0, 6737
0, 641
0, 2401
0, 4113
0, 13443
0, 0
0, 0
0, 0
0, -9826
0, 11315
0, 5842
0, 0
0, 2016
0, 240
0, 0
0, -4529
0, 1777
0, 272
0, 6546
0, 4770
0, 12163
0, -48
0, 0
0, 0
0, 0
0, 0
0, -400
0, 1760
0, 1360
0, -880
0, 0
0, 7441
0, -384
0, -3569
0, 2897
0, -2912
0, 5441
0, 9027
0, 16884
0, 1664
0, 0
0, 3120
0, 7441
0, 11506
0, 96
0, 0
0, 0
0, 1632
0, -753
0, 8754
0, 2737
0, 544
0, -4001
0, 2384
0, -1632
0, -2353
0, -208
0, 0
0, 9458
0, 3585
0, 14484
0, 1248
0, 0
0, 1584
0, 5826
0, 3441
0, 2384
0, -10387
0, 8258
0, 3585
0, 1809
0, 1537
0, 0
0, 0
0, -2192
0, 0
0, 1681
0, 1344
0, 800
0, 224
0, -480
0, 3265
0, -1520
0, 3073
0, 6529
0, -720
0, 4881
0, 2817
0, -1296
0, 0
0, 592
0, 10450
0, 18164
0, 11139
0, 992
0, 0
0, 4721
0, 1552
0, -4177
0, 4033
0, 3809
0, 5522
0, 8882
0, -3937
0, 3297
0, 4609
0, 0
0, 0
0, 0
0, 960
0, 4785
0, 0
0, 0
0, 0
0, 0
0, 1680
0, -8578
0, 5089
0, -1072
0, 3185
0, -2145
0, 2400
0, 0
0, 5457
0, 0
0, 1824
0, 3472
0, 0
0, 0
0, 0
0, 0
0, 1680
0, 448
0, 14788
0, 4545
0, 3649
0, 7217
0, 705
0, 2240
0, 0
0, 0
0, 7761
0, -1520
0, 10275
0, 976
0, 1360
0, 0
0, 0
0, 6993
0, -3233
0, 2192
0, 6866
0, 3456
0, 1568
0, -960
0, 16804
0, 0
0, 0
0, 0
0, 13540
0, 5185
0, 480
0, 0
0, 992
0, 0
0, 4257
0, 560
0, 12659
0, 6721
0, -1648
0, 4113
0, 4898
0, 0
0, 9426
0, 2624
0, 464
0, 13299
0, 1264
0, 0
0, 0
0, 256
0, -8882
0, 752
0, 2224
0, 400
0, 416
0, 2433
0, 12179
0, 960
0, 1712
0, 4913
0, -1088
0, 1104
0, -32
0, 0
0, 0
0, 0
0, 736
0, -2929
0, -12099
0, -4817
0, 4497
0, 2033
0, 9922
0, 1600
0, 5810
0, 0
0, 0
0, 0
0, -1680
0, 6706
0, 1936
0, 544
0, 0
0, 1792
0, 3073
0, -912
0, 7937
0, 4961
0, 5873
0, 6433
0, 3105
0, 0
0, 0
0, 0
0, 0
0, 1057
0, 928
0, 0
0, 1168
0, 0
0, 4257
0, 0
0, 1889
0, 6530
0, 4754
0, 10275
0, 6097
0, 6434
0, 0
0, 0
0, 880
0, 4786
0, 7538
0, 0
0, 1216
0, 752
0, -1808
0, 4417
0, -4993
0, -4625
0, -10467
0, 16
0, -1121
0, -128
0, 2929
0, 0
0, 0
0, 4993
0, 15315
0, 6962
0, 0
0, 1616
0, -464
0, 0
0, 1841
0, 7042
0, 2064
0, 2832
0, 2689
0, 9026
0, -3393
0, 0
0, 0
0, 2800
0, 3696
0, 5249
0, 3680
0, 1456
0, 0
0, 0
0, -1376
0, 2353
0, -8514
0, -96
0, -2128
0, 2896
0, 2704
0, 1360
0, 0
0, 0
0, 6561
0, 5105
0, 7042
0, 416
0, 0
0, 0
0, 0
0, 4225
0, -1473
0, 112
0, 4385
0, 3008
0, 1504
0, 7345
0, 16772
0, 0
0, 0
0, -1616
0, 544
0, 4769
0, 1776
0, 0
0, -2224
0, 0
0, -8658
0, 6914
0, -880
0, 5313
0, 6081
0, 1664
0, 1376
0, 0
0, 0
0, 0
0, 0
0, 4786
0, 12034
0, 224
0, 0
0, 0
0, 10611
0, 4562
0, 1889
0, 3024
0, 8754
0, -256
0, 1648
0, 3168
0, 0
0, 0
0, 0
0, -1073
0, 4289
0, 16
0, 0
0, 2000
0, 0
0, 1488
0, 5874
0, -224
0, -4097
0, 64
0, 320
0, 2369
0, 177
0, 4689
0, 1504
0, 512
0, 0
0, -1200
0, 912
0, 3697
0, 0
0, 1184
0, 4545
0, 2465
0, 1200
0, 1601
0, 9426
0, 3569
0, 3921
0, 0
0, 0
0, 0
0, 6321
0, -128
0, 0
0, 0
0, 3760
0, 656
0, 5105
0, 13939
0, 11235
0, -5905
0, -3313
0, 11491
0, 3233
0, 6402
0, 0
0, 1968
0, 0
0, 6850
0, -5506
0, 0
0, 2080
0, 2240
0, 576
0, 5377
0, 2928
0, 1840
0, -6193
0, -848
0, 7426
0, 10499
0, 3265
0, 0
0, 11010
0, 0
0, 3360
0, 128
0, 1104
0, 352
0, 272
0, 240
0, 4193
0, 9474
0, -3249
0, -1872
0, 4546
0, 945
0, -14067
0, 0
0, 0
0, 576
0, 0
0, 2993
0, 0
0, 0
0, 0
0, 0
0, 0
0, 7041
0, -2112
0, 128
0, 4401
0, 4722
0, -544
0, 3969
0, -3856
0, 0
0, 576
0, 7873
0, 2801
0, 1424
0, 736
0, 1776
0, 512
0, -192
0, -1744
0, 4657
0, 7233
0, 15460
0, -1120
0, 2657
0, 5473
0, 0
0, 0
0, -3920
0, 0
0, -688
0, 64
0, 0
0, 2944
0, 0
0, -624
0, 7313
0, -2592
0, 5810
0, 10323
0, 6097
0, 4641
0, 0
0, 0
0, 0
0, 0
0, 336
0, 5281
0, 2448
0, 0
0, 0
0, 2672
0, -1712
0, 8962
0, -2913
0, 176
0, 9218
0, 7890
0, -48
0, 0
0, 0
0, -368
0, 7346
0, 2288
0, 2272
0, 0
0, 1776
0, 1264
0, 6353
0, 9794
0, 2032
0, 3793
0, -32
0, -1009
0, 3089
0, 1761
0, 0
0, 9042
0, 0
0, 0
0, 2240
0, 0
0, 0
0, 0
0, 3264
0, -1088
0, 3937
0, 1264
0, -6897
0, 5777
0, -544
0, 2929
0, 0
0, 0
0, 5137
0, 32
0, -4993
0, 5313
0, 2592
0, 1488
0, 0
0, 4610
0, -3457
0, 4161
0, 960
0, -1296
0, 5761
0, 6386
0, -640
0, 0
0, 0
0, 0
0, 272
0, 896
0, 0
0, 3360
0, 0
0, 224
0, 6354
0, -5089
0, 3793
0, 2640
0, 2864
0, 15908
0, 352
0, 1153
0, 0
0, 0
0, 0
0, 4897
0, 5233
0, 672
0, 0
0, 2512
0, 4721
0, -3457
0, -6946
0, -784
0, 80
0, -2432
0, 6561
0, 2497
0, 4689
0, 0
0, 0
0, 656
0, -720
0, 5265
0, 0
0, 0
0, 0
0, 1600
0, 2897
0, 800
0, 96
0, 7730
0, -2016
0, 4017
0, 5345
0, 912
0, 0
0, 0
0, 8049
0, 6497
0, 0
0, 0
0, 672
0, 2208
0, 3296
0, -3536
0, 4129
0, 8642
0, 2033
0, 1200
0, -2001
0, 5570
0, 2720
0, 0
0, -3408
0, 2224
0, -1408
0, 0
0, 0
0, -1792
0, 0
0, 576
0, 7473
0, 9763
0, -2561
0, 368
0, 2032
0, 7970
0, 0
0, 0
0, 2832
0, -2800
0, 0
0, 4465
0, 576
0, 0
0, 0
0, 4513
0, 2417
0, 7682
0, 304
0, 1312
0, 6642
0, 1889
0, 7282
0, -1520
0, 0
0, 0
0, 0
0, 8834
0, 0
0, 0
0, 0
0, 928
0, -1104
0, 7953
0, 2897
0, -11587
0, 4513
0, 6050
0, 4481
0, 944
0, 7921
0, 0
0, -1328
0, -2144
0, 4273
0, 0
0, 0
0, 320
0, 0
0, 8114
0, 3825
0, 13219
0, 6146
0, 4065
0, 1233
0, 2353
0, 0
0, 0
0, 0
0, 0
0, -6273
0, 2593
0, 208
0, 624
0, 0
0, 0
0, 5953
0, 13059
0, 7058
0, 10035
0, 3793
0, 20837
0, 4417
0, 0
0, 0
0, 0
0, 14595
0, 12771
0, 0
0, 848
0, -224
0, -3696
0, 3745
0, 7346
0, 4337
0, -11827
0, 8674
0, 8130
0, 10691
0, 2289
0, 0
0, 0
0, 0
0, 5937
0, 880
0, 1344
0, 0
0, 0
0, 0
0, 1712
0, -3616
0, 8258
0, -9746
0, 9859
0, 10467
0, 6066
0, 0
0, 0
0, 0
0, 752
0, 9218
0, 6705
0, 1792
0, 0
0, 0
0, 1232
0, 7202
0, -1745
0, -9666
0, -784
0, 4481
0, 9314
0, 912
0, 0
0, 0
0, 0
0, 0
0, -4129
0, 2304
0, 0
0, 1344
0, 1232
0, 6930
0, -1456
0, 7682
0, 5954
0, 2961
0, 14468
0, 4385
0, 3600
0, 0
0, 0
0, 4929
0, -8018
0, 2545
0, 2144
0, 2160
0, 16
0, 0
0, -11955
0, 8514
0, 3585
0, 3633
0, 5218
0, 7314
0, 11091
0, 3984
0, 0
0, 0
0, 0
0, 6065
0, 12211
0, 1024
0, 1168
0, 368
0, 800
0, 1456
0, 3761
0, -1968
0, 8162
0, -1345
0, 12099
0, 3153
0, 0
0, 0
0, 7649
0, 4000
0, 3409
0, 16
0, 368
0, 0
0, 480
0, 2513
0, 4786
0, 3697
0, -336
0, 5585
0, 3729
0, 6050
0, 3553
0, 0
0, 1936
0, 5137
0, 416
0, 1904
0, -65535
0, 0
0, -1024
0, 0
0, 6193
0, 2993
0, -2800
0, 17236
0, -2129
0, 4753
0, -3537
0, 0
0, 0
0, 0
0, -2401
0, 0
0, 16452
0, 0
0, 1776
0, 384
0, 0
0, 5297
0, 9090
0, 7554
0, 4801
0, 2465
0, 2929
0, 6130
0, 0
0, 1200
0, 128
0, 736
0, 7393
0, 0
0, 48
0, 1984
0, 320
0, -4401
0, -608
0, -11171
0, 1249
0, 6145
0, 8386
0, 961
0, -2656
0, 0
0, 0
0, 0
0, 5489
0, 9427
0, 2640
0, 0
0, 0
0, 0
0, 3713
0, -1328
0, -752
0, 7522
0, 7522
0, 2561
0, 4897
0, -1616
0, 0
0, 0
0, 0
0, 7042
0, 3761
0, 0
0, 992
0, 1568
0, 2688
0, 3121
0, 560
0, 3985
0, 6386
0, 10451
0, -3152
0, 352
0, 0
0, 0
0, 9650
0, 768
0, 3376
0, 0
0, 3536
0, 1968
0, 3472
0, 7602
0, 1873
0, 3793
0, 8562
0, -9202
0, 1712
0, 720
0, 6241
0, 0
0, 0
0, 4129
0, 0
0, 1776
0, 1120
0, 1664
0, 5569
0, 0
0, 5537
0, 1360
0, 3808
0, 10162
0, 7922
0, 5106
0, 13827
0, -5361
0, 0
0, 928
0, -2992
0, -2288
0, 6161
0, 0
0, 2096
0, 192
0, 1472
0, 7986
0, -6450
0, 6754
0, 11378
0, 3409
0, 5089
0, 10163
0, 0
0, 0
0, 0
0, -1152
0, -1424
0, 0
0, 1664
0, 0
0, 2624
0, -112
0, 1184
0, 144
0, 7970
0, 1904
0, 2977
0, 7234
0, 912
0, 0
0, -2368
0, -1024
0, 16067
0, 10195
0, 560
0, 0
0, 160
0, 2161
0, 3777
0, 5265
0, 4993
0, 8210
0, 4481
0, 5362
0, 4513
0, 1601
0, 0
0, 0
0, 0
0, 1264
0, 4818
0, 1232
0, 1344
0, 1504
0, 448
0, 12547
0, 2865
0, 3057
0, 4465
0, 3457
0, -1057
0, 17013
0, 0
0, 0
0, 0
0, 0
0, 7698
0, 0
0, 0
0, 4673
0, 0
0, 2529
0, 9362
0, 7777
0, 17844
0, 2640
0, 8850
0, 3504
0, -977
0, 0
0, 0
0, 0
0, 0
0, 864
0, 784
0, 0
0, 0
0, 2688
0, 592
0, -960
0, -753
0, -3809
0, 3952
0, 352
0, -7234
0, 768
0, 0
0, 0
0, 336
0, 8418
0, 224
0, 0
0, 0
0, 3728
0, 2752
0, -1089
0, -1313
0, -3712
0, 3121
0, 5441
0, 2192
0, 4049
0, 0
0, 0
0, -1536
0, 224
0, 7474
0, 0
0, 0
0, 0
0, 0
0, 1136
0, 4385
0, -881
0, -2801
0, 8610
0, 2241
0, 12803
0, -400
0, 0
0, 0
0, 608
0, 10930
0, 8514
0, 0
0, 544
0, 0
0, 0
0, 3729
0, 5553
0, -25446
0, 3137
0, -1296
0, 9347
0, 3825
0, 2273
0, 0
0, 5425
0, 0
0, -96
0, 6546
0, 2688
0, 1392
0, 2144
0, 4417
0, -3681
0, 3825
0, -5778
0, 4929
0, -144
0, 8130
0, 18261
0, 0
0, 0
0, 0
0, 5345
0, -3616
0, 4881
0, -656
0, 1136
0, 0
0, -7138
0, 1505
0, 913
0, 15012
0, 8786
0, 1040
0, -4401
0, 3457
0, 6129
0, 5953
0, 19572
0, -6482
0, 4481
0, 448
0, 0
0, 0
0, 48
0, 3809
0, 833
0, 9842
0, 18341
0, 4129
0, 3105
0, 5218
0, 4225
0, 5137
0, 0
0, -7153
0, 576
0, 3489
0, 0
0, 2864
0, 288
0, 80
0, -4657
0, 4833
0, 3089
0, 7650
0, 14755
0, 2737
0, 4801
0, 0
0, 0
0, -3776
0, 736
0, 1649
0, 0
0, 2176
0, 0
0, 0
0, 0
0, 5809
0, 784
0, 3393
0, 3200
0, 13619
0, 4065
0, -2400
0, 0
0, 0
0, 0
0, 3328
0, -384
0, 32
0, 800
0, 0
0, 0
0, -80
0, 1984
0, 4626
0, 1360
0, 8050
0, 8578
0, 4145
0, -976
0, 0
0, 0
0, -3440
0, 2976
0, 7554
0, 3168
0, 0
0, 1424
0, 880
0, 15364
0, -3089
0, 3937
0, -4321
0, 4513
0, 4497
0, -2017
0, 0
0, 0
0, 0
0, 5793
0, -7602
0, 9138
0, 0
0, 0
0, 224
0, 960
0, 3697
0, 10834
0, 304
0, 6322
0, 3056
0, 4337
0, 4801
0, 2672
0, 0
0, -1360
0, 7714
0, 672
0, 0
0, 0
0, -2368
0, 512
0, 3969
0, -240
0, -752
0, 10658
0, 4289
0, 9506
0, 6658
0, -2448
0, 0
0, 4145
0, 0
0, 1216
0, 4481
0, 0
0, 1664
0, 544
0, 0
0, 768
0, -1761
0, 10418
0, 4657
0, 4401
0, 5234
0, 6786
0, -2544
0, 0
0, 0
0, -1008
0, 7362
0, 1968
0, 1424
0, 0
0, 0
0, 7746
0, 4977
0, -4273
0, -3457
0, 9234
0, 3841
0, 4897
0, 1713
0, 0
0, 0
0, 0
0, 6241
0, 10594
0, 288
0, 96
0, 0
0, 3904
0, 12195
0, 13267
0, 25654
0, 13187
0, 14436
0, 8514
0, 9442
0, 3761
0, 0
0, 0
0, 240
0, -7153
0, 2705
0, 864
0, 0
0, -432
0, 560
0, -640
0, 10978
0, 5649
0, -1745
0, 2976
0, 15732
0, 4434
0, 0
0, 0
0, 0
0, -7297
0, -1216
0, 17668
0, 640
0, 1376
0, 0
0, 4257
0, 10051
0, -2416
0, -1296
0, -1392
0, 5297
0, 272
0, 1504
0, 0
0, 0
0, 0
0, 3264
0, -144
0, 0
0, 0
0, 0
0, -272
0, 3537
0, -4833
0, -3681
0, -2737
0, 3217
0, 3265
0, -512
0, 3121
0, 0
0, 336
0, -2368
0, 6001
0, 8530
0, 3296
0, 0
0, 4257
0, 768
0, -2913
0, -784
0, 2336
0, 3184
0, 4786
0, -2033
0, 6514
0, 0
0, 0
0, -1056
0, 8466
0, -928
0, 3488
0, 1568
0, 1184
0, 0
0, 7170
0, 4289
0, 14355
0, 6242
0, 6482
0, 3713
0, 11283
0, 2592
0, 0
0, 0
0, 0
0, 8770
0, -2944
0, 2368
0, 1280
0, 480
0, 0
0, 18452
0, 4593
0, 4513
0, 11171
0, 5409
0, -7570
0, -1585
0, 20037
0, -1904
0, 0
0, -3584
0, -144
0, 6546
0, 32
0, 0
0, 0
0, 0
0, 640
0, 1776
0, 4081
0, 977
0, 369
0, -960
0, 9538
0, -2032
0, 0
0, -2336
0, 3681
0, -1136
0, 3745
0, 0
0, 0
0, 0
0, 0
0, 80
0, 224
0, 3360
0, 2272
0, 2512
0, 10562
0, 5281
0, 0
0, 0
0, 0
0, 7665
0, 14147
0, 1344
0, 2704
0, 0
0, 5169
0, 4113
0, 14547
0, 9187
0, 6162
0, -5249
0, 5297
0, 11027
0, 2273
0, -320
0, 0
0, 2272
0, 14211
0, 11059
0, 1360
0, 1088
0, 0
0, 3744
0, -2512
0, -5409
0, -2577
0, 21909
0, 4833
0, -3761
0, -2448
0, 0
0, 0
0, -2672
0, 384
0, -1216
0, 6385
0, 0
0, 352
0, 0
0, -2512
0, 12563
0, 736
0, 8946
0, -1136
0, 10018
0, 144
0, 2209
0, 0
0, 0
0, -432
0, -2800
0, -1104
0, 192
0, 0
0, 784
0, -2096
0, 5345
0, 5858
0, 8930
0, 3569
0, 3153
0, 5537
0, 10771
0, 4545
0, 0
0, 0
0, 2528
0, 11010
0, 7922
0, 0
0, 0
0, -688
0, 1888
0, 9058
0, 5361
0, 10339
0, -960
0, 1440
0, 5905
0, 13123
0, 3456
0, 0
0, -1008
0, 0
0, 0
0, 4849
0, 0
0, 1184
0, 5441
0, 5665
0, -656
0, -3905
0, 6738
0, 11635
0, 8483
0, 496
0, 5409
0, 0
0, 0
0, 0
0, 0
0, 368
0, 0
0, 640
0, 0
0, 0
0, -832
0, -1441
0, -6946
0, 769
0, 7986
0, 1920
0, 5777
0, 7794
0, 0
0, 1312
0, 0
0, 2352
0, 1264
0, 384
0, 1744
0, 0
0, 5649
0, -2416
0, -112
0, 8866
0, 896
0, 577
0, 160
0, 6722
0, 0
0, 0
0, 0
0, 0
0, 5649
0, 8514
0, 1632
0, 0
0, 2080
0, 736
0, -1072
0, 11330
0, -80
0, 6674
0, 592
0, 8706
0, 11235
0, 0
0, 0
0, 0
0, -3617
0, -2497
0, 0
0, 0
0, 480
0, 16
0, 12516
0, -2305
0, 9954
0, 8642
0, -4497
0, -3745
0, 4129
0, 4001
0, 0
0, 0
0, 7458
0, -1536
0, -1200
0, 0
0, 0
0, 0
0, 0
0, 3857
0, -1041
0, -8803
0, 32
0, 4049
0, 3041
0, 6481
0, 96
0, 0
0, 0
0, 0
0, 10690
0, 23429
0, 0
0, 288
0, 0
0, 368
0, 9090
0, 9378
0, 13059
0, 8626
0, 3505
0, 11747
0, 5890
0, 0
0, 0
0, -560
0, 3808
0, 1520
0, 0
0, 0
0, 1184
0, 1120
0, 8722
0, 7169
0, 2305
0, 801
0, 7682
0, 4914
0, 1056
0, 3585
0, 0
0, 0
0, 0
0, 8610
0, 10771
0, 0
0, 1056
0, 4545
0, 112
0, 7633
0, 3665
0, 1137
0, 8563
0, 6466
0, 6209
0, 3169
0, 1184
0, 0
0, 2704
0, 8434
0, 8706
0, 4129
0, 0
0, 2304
0, 1616
0, 576
0, -400
0, -3073
0, -3601
0, 2033
0, 6065
0, 2336
0, 4449
0, 0
0, 5393
0, -416
0, 8258
0, 3969
0, 0
0, 2352
0, 528
0, 5249
0, 1600
0, 6577
0, -11730
0, 5969
0, 3504
0, 4001
0, 8754
0, 944
0, 0
0, -80
0, 0
0, 4449
0, 11634
0, 0
0, 0
0, 0
0, 0
0, 6914
0, 480
0, 2817
0, 16661
0, 8050
0, 3889
0, 2336
0, 0
0, 0
0, 0
0, -4561
0, -5649
0, 5361
0, 0
0, 0
0, 0
0, 1568
0, 6673
0, -4849
0, 6434
0, 560
0, 5506
0, 2368
0, 7202
0, 0
0, 0
0, 1328
0, -4849
0, 9843
0, 0
0, 0
0, 352
0, 0
0, 2304
0, -2401
0, 992
0, -768
0, -896
0, 5073
0, 4353
0, 4721
0, 0
0, 0
0, 0
0, 15091
0, -560
0, 0
0, 1056
0, 0
0, 2272
0, 896
0, 624
0, -12867
0, -3776
0, 4705
0, -2225
0, 8914
0, -3393
0, 0
0, 0
0, 0
0, 0
0, 6354
0, 928
0, 1296
0, 0
0, 0
0, -3776
0, 2081
0, 2513
0, -2561
0, 3057
0, 9507
0, -592
0, 0
0, 0
0, 7137
0, 0
0, 3264
0, 0
0, 1264
0, 0
0, 0
0, -1920
0, 4577
0, 9955
0, 4914
0, 7233
0, 6450
0, 464
0, 736
0, 0
0, 0
0, 0
0, 4401
0, 4865
0, 0
0, 0
0, 1056
0, 3808
0, 7762
0, 1825
0, 7362
0, 1936
0, -848
0, 3985
0, 1120
0, 4401
0, 112
0, 0
0, -1344
0, 10899
0, 5921
0, 1968
0, 0
0, 48
0, 0
0, 3009
0, 6305
0, -5810
0, 1937
0, 5553
0, -1056
0, 6849
0, 0
0, 0
0, 0
0, 4977
0, 2048
0, 0
0, 480
0, 0
0, 1488
0, 11907
0, 9842
0, -5809
0, 4913
0, 2576
0, -192
0, 1616
0, 8146
0, 0
0, 0
0, 0
0, 6113
0, 2337
0, 0
0, 0
0, 0
0, 3024
0, 3953
0, -3121
0, 6033
0, 2720
0, 2896
0, -1936
0, -368
0, 1472
0, 0
0, 464
0, 1248
0, 7266
0, 7010
0, 0
0, 1248
0, 0
0, 1856
0, 8754
0, 3857
0, 6177
0, 2737
0, 6833
0, 4689
0, 2960
0, 256
0, 0
0, 0
0, 4930
0, 6113
0, 128
0, 1056
0, 96
0, 1248
0, -2464
0, 6018
0, 1825
0, -4001
0, 17525
0, 7858
0, 12259
0, 1585
0, 0
0, 0
0, 17204
0, 8354
0, 5937
0, 0
0, 448
0, 0
0, 1808
0, -2913
0, 6577
0, 1217
0, -1393
0, 12979
0, -2753
0, 3632
0, -1920
0, 0
0, 0
0, 0
0, -1008
0, 6754
0, 0
0, 2512
0, 560
0, -3200
0, 8514
0, 4305
0, 4209
0, 6978
0, 592
0, 7602
0, 3280
0, 0
0, 0
0, 0
0, 2832
0, 1248
0, 528
0, 0
0, -336
0, 1296
0, 0
0, 4977
0, 1376
0, 7410
0, 2016
0, 6321
0, 4977
0, 4546
0, 4769
0, 1968
0, -9138
0, 5121
0, -3809
0, 3408
0, 736
0, 432
0, 1536
0, 3169
0, 10034
0, 736
0, 5425
0, 944
0, 3281
0, 5649
0, 1680
0, 0
0, 0
0, 0
0, -880
0, 4465
0, 1616
0, 0
0, 32
0, 0
0, -1568
0, -192
0, 11011
0, -2545
0, 11795
0, -289
0, 6385
0, 0
0, 0
0, 0
0, 8354
0, -6113
0, 8610
0, 0
0, 1552
0, 0
0, -2000
0, 8722
0, 8578
0, -64
0, 6450
0, 672
0, 3921
0, 8914
0, 3984
0, 0
0, -7729
0, 15348
0, 12243
0, 432
0, 0
0, 0
0, 0
0, -9554
0, 960
0, -208
0, 96
0, 112
0, -7378
0, -5857
0, 3089
0, 0
0, 240
0, 4129
0, 0
0, 5553
0, 0
0, 64
0, 96
0, 0
0, -848
0, 688
0, 3121
0, 3729
0, 7890
0, 6690
0, -4577
0, 0
0, 0
0, -4609
0, -3472
0, 10210
0, 3648
0, 464
0, 1312
0, 4641
0, 3073
0, 6049
0, 2480
0, 4513
0, 3473
0, -4081
0, 10338
0, 5346
0, 1888
0, 0
0, 0
0, 1264
0, 3825
0, 320
0, 656
0, 0
0, 2304
0, -848
0, 1377
0, 5281
0, -7730
0, 3169
0, 2320
0, 16036
0, -672
0, 8145
0, 0
0, -1232
0, 2368
0, 3857
0, 0
0, 0
0, 1216
0, 1616
0, 9346
0, 6050
0, 13523
0, 13027
0, 6962
0, 2368
0, -3088
0, 0
0, 3056
0, 0
0, 2272
0, -2256
0, 4465
0, 0
0, -432
0, 0
0, 3648
0, 4785
0, 10210
0, 144
0, 9907
0, -705
0, 1009
0, 560
0, 0
0, 0
0, 12034
0, 6401
0, 5329
0, 0
0, 272
0, 848
0, 1264
0, 7026
0, -560
0, -2288
0, 6962
0, 4929
0, 1809
0, 13555
0, -144
0, 0
0, 0
0, 0
0, 3488
0, -1952
0, 1888
0, 1600
0, 0
0, 2032
0, 832
0, 8707
0, 5377
0, 2065
0, 10675
0, 2561
0, 17685
0, 0
0, 0
0, -3328
0, 0
0, -1873
0, 6033
0, 224
0, 1008
0, 352
0, -10850
0, -112
0, 6802
0, 16308
0, -3873
0, 2817
0, 10178
0, -880
0, 0
0, 0
0, 0
0, 4658
0, -5409
0, 0
0, 192
0, 608
0, 4865
0, 7490
0, 1984
0, 7138
0, 2433
0, 1728
0, 7202
0, 4369
0, 7026
0, 2016
0, 0
0, -3664
0, -3569
0, 10706
0, 0
0, 0
0, 720
0, 5185
0, -48
0, -1712
0, 6402
0, 2081
0, -7282
0, 4145
0, 4593
0, 0
0, 0
0, 1408
0, 8738
0, -5153
0, 4801
0, 0
0, 0
0, 1216
0, -1136
0, 4097
0, -2768
0, -2704
0, 7249
0, 2849
0, 1841
0, 7874
0, -2656
0, 0
0, -1520
0, 9170
0, 6417
0, 0
0, 2256
0, 0
0, 80
0, 512
0, 4513
0, 1616
0, 1184
0, 4113
0, 1568
0, 14372
0, 5218
0, 0
0, 0
0, 6001
0, 8642
0, 5585
0, 1008
0, 0
0, 512
0, 496
0, 1185
0, -448
0, 2560
0, 912
0, 4257
0, 3729
0, 13875
0, 0
0, -768
0, 0
0, 0
0, 3456
0, 3953
0, 1408
0, 0
0, 0
0, 4625
0, -3504
0, 2592
0, 1104
0, 2672
0, 2609
0, 8787
0, 1840
0, 0
0, 0
0, 0
0, 9842
0, 5233
0, 1712
0, 752
0, 0
0, 176
0, 4866
0, -1633
0, 10514
0, -320
0, 2208
0, 3489
0, 3296
0, 2577
0, 0
0, 0
0, 192
0, -6529
0, 10099
0, 0
0, 0
0, 224
0, 512
0, -4353
0, 4385
0, 3280
0, -1985
0, -768
0, 1456
0, 2209
0, 1664
0, 0
0, 0
0, 0
0, 1600
0, 4353
0, 992
0, 2048
0, 0
0, -4657
0, -384
0, 7618
0, 10083
0, 4241
0, -2001
0, 2129
0, 2833
0, 0
0, 0
0, -1984
0, 10354
0, -7506
0, 528
0, 448
0, 1376
0, 656
0, 4209
0, 5986
0, 10707
0, 7458
0, 6545
0, 3569
0, -4993
0, 4145
0, 0
0, 0
0, 6689
0, 11010
0, -3329
0, 880
0, 336
0, 1872
0, 1344
0, 5281
0, 2576
0, 7473
0, 2033
0, 4385
0, 1345
0, 19156
0, 5697
0, 0
0, 0
0, -1568
0, 5521
0, 29063
0, 0
0, 368
0, 0
0, 1424
0, 6306
0, 12355
0, 14020
0, 2369
0, 705
0, 512
0, 1616
0, -3216
0, 0
0, 0
0, -4865
0, -9106
0, 0
0, 576
0, 848
0, 0
0, 3520
0, 3585
0, -10418
0, 13075
0, 7873
0, 449
0, 4993
0, 0
0, 0
0, -2432
0, 0
0, 14323
0, 3281
0, 224
0, 1584
0, 64
0, 0
0, 4017
0, -1440
0, 9747
0, 4113
0, 4849
0, 4145
0, 6738
0, 7217
0, 0
0, 0
0, -3904
0, 9122
0, 544
0, 416
0, 0
0, 1376
0, 4113
0, -3313
0, 2833
0, 16211
0, 0
0, 2224
0, 17188
0, -6609
0, 0
0, 0
0, 0
0, 6065
0, 10546
0, 0
0, 0
0, 0
0, 0
0, 8610
0, 3937
0, 8802
0, -7185
0, 6866
0, 2657
0, 6561
0, 1712
0, 0
0, 3024
0, -6513
0, -4097
0, 22805
0, 0
0, 0
0, 0
0, 0
0, 5825
0, 8754
0, 7762
0, 1408
0, 2129
0, 3201
0, -880
0, 0
0, 1792
0, 0
0, -816
0, 144
0, 0
0, 416
0, 0
0, 0
0, 4433
0, 2929
0, 3745
0, 10259
0, 1553
0, 2352
0, 5650
0, 1008
0, 0
0, -1120
0, 0
0, 0
0, 3633
0, 768
0, 1632
0, 80
0, 1024
0, 4641
0, 528
0, 7874
0, -1152
0, 10067
0, -144
0, 2128
0, 0
0, 0
0, 528
0, 3089
0, 6545
0, 5890
0, 0
0, 128
0, 0
0, 0
0, -1248
0, 13812
0, 4545
0, 64
0, -288
0, 6290
0, 2865
0, 0
0, 4593
0, 0
0, 17108
0, 7105
0, 0
0, 176
0, 0
0, -1008
0, 5986
0, 208
0, -3009
0, 8370
0, -5553
0, 5361
0, 7458
0, 6802
0, 0
0, -3952
0, 0
0, 14387
0, 9762
0, 0
0, 0
0, 0
0, 0
0, 4802
0, 10643
0, 10579
0, -3553
0, 368
0, 1968
0, -1104
0, 3344
0, 0
0, 0
0, 0
0, -1536
0, 5682
0, 0
0, 0
0, 48
0, 0
0, 3329
0, 10066
0, 11539
0, 13060
0, 10547
0, 7410
0, 6305
0, 0
0, 0
0, 5633
0, 0
0, -3184
0, 560
0, 16
0, 0
0, 0
0, -1232
0, 6546
0, 5618
0, 1936
0, 2657
0, 3569
0, 7170
0, 5793
0, 0
0, 0
0, 512
0, 2720
0, 48
0, 0
0, 0
0, 0
0, 1120
0, -1857
0, 3985
0, 7458
0, -288
0, 3409
0, 5330
0, -8386
0, -8514
0, 0
0, 0
0, 320
0, 2625
0, 5825
0, 0
0, 0
0, 0
0, 0
0, 2481
0, 2961
0, -3569
0, -7042
0, 2656
0, 5985
0, 3873
0, 0
0, 0
0, 0
0, 0
0, 9186
0, 1040
0, 0
0, 0
0, 2704
0, 17397
0, -3472
0, 1792
0, 960
0, 5634
0, 592
0, 12916
0, 17141
0, 0
0, 0
0, 0
0, 176
0, 2177
0, 0
0, 0
0, 0
0, 3504
0, 4689
0, 5857
0, 3041
0, 12531
0, 7489
0, -1568
0, 3953
0, 3825
0, 0
0, 0
0, 0
0, 2064
0, 12131
0, 0
0, 3568
0, 1216
0, -576
0, 6865
0, 4801
0, 11075
0, 11699
0, 1681
0, 3873
0, 800
0, 144
0, 0
0, 0
0, -641
0, 7841
0, 0
0, 224
0, 0
0, 0
0, -1473
0, -512
0, 5089
0, 5137
0, 15683
0, 6962
0, -752
0, -912
0, 0
0, 0
0, 640
0, -4401
0, -2400
0, 640
0, 0
0, 288
0, 2640
0, -64
0, 3201
0, 3905
0, -6322
0, 2224
0, 208
0, 10514
0, 15139
0, 5681
0, 0
0, 0
0, -4257
0, 10339
0, 0
0, 288
0, 0
0, 224
0, 3552
0, 6658
0, 64
0, 1601
0, 4865
0, 5874
0, 5217
0, 0
0, 0
0, 48
0, -480
0, 4737
0, 2064
0, 0
0, 0
0, 3456
0, 7506
0, -10322
0, -5585
0, -15140
0, 24806
0, 9042
0, 1360
0, 4449
0, 0
0, 0
0, 0
0, 6017
0, 11075
0, 544
0, 0
0, 0
0, 832
0, 6338
0, 6274
0, 3553
0, -9346
0, 5842
0, 9699
0, 5618
0, 3632
0, -225
0, 0
0, 0
0, 2497
0, 5169
0, 192
0, 0
0, 0
0, 0
0, 2193
0, 5281
0, 18436
0, -2384
0, 976
0, 2976
0, 960
0, 0
0, 368
0, 0
0, 13267
0, 0
0, 960
0, 0
0, 304
0, 0
0, 6961
0, 7538
0, 6514
0, 6818
0, 384
0, 5201
0, 3217
0, 6434
0, 0
0, 0
0, 0
0, 3904
0, 6049
0, 0
0, 0
0, 0
0, 16
0, 6578
0, 1201
0, -3553
0, -1216
0, -705
0, 5201
0, -144
0, 1312
0, 0
0, 0
0, 11346
0, 0
0, -64
0, 0
0, 0
0, 0
0, 0
0, 1984
0, 1200
0, 3344
0, -720
0, 1905
0, 5986
0, 4337
0, 0
0, 0
0, 0
0, 0
0, 11106
0, 2976
0, 336
0, 0
0, 0
0, 7138
0, 2272
0, 3249
0, 4081
0, 4497
0, -576
0, -96
0, 3281
0, 0
0, 4513
0, 64
0, -2896
0, 1392
0, 0
0, 0
0, 0
0, 0
0, 11299
0, 7938
0, 8706
0, -1344
0, 9218
0, 4625
0, 4545
0, 1520
0, 0
0, 0
0, 0
0, -1712
0, 5489
0, 0
0, 0
0, 816
0, -752
0, 704
0, 2737
0, 736
0, 6881
0, 3041
0, -1873
0, 4209
0, 0
0, 0
0, 0
0, 11042
0, 0
0, 4593
0, 0
0, 896
0, 1792
0, 736
0, 1072
0, -6338
0, -5522
0, 4353
0, 6673
0, 8018
0, -896
0, 0
0, 0
0, 0
0, 7249
0, 3601
0, 1216
0, 0
0, 0
0, 3392
0, 1904
0, 6737
0, -11763
0, -1936
0, 2833
0, 5090
0, -976
0, 4145
0, 0
0, 0
0, 0
0, 13747
0, 12387
0, 0
0, 0
0, 896
0, -2128
0, 6721
0, 8402
0, 6002
0, -704
0, 1104
0, -1185
0, 5458
0, 1008
0, 0
0, 0
0, 0
0, 2368
0, 1360
0, 112
0, 2128
0, 0
0, 0
0, 4977
0, 3201
0, -4866
0, -2113
0, 3937
0, 1152
0, 14004
0, 0
0, 0
0, 0
0, -7442
0, 1105
0, 0
0, 0
0, 608
0, 2480
0, 1793
0, -1888
0, 928
0, -6497
0, 8194
0, 1840
0, 4113
0, 2016
0, 0
0, 0
0, -2208
0, -3312
0, -3729
0, 0
0, 336
0, 32
0, 0
0, 10770
0, 4049
0, 8610
0, 2272
0, -1425
0, 6834
0, 4913
0, 0
0, 0
0, 3056
0, 0
0, 2897
0, 4225
0, 0
0, 0
0, 0
0, 752
0, -1888
0, 2977
0, 4706
0, -3345
0, 1824
0, 80
0, 1232
0, 0
0, 0
0, 0
0, -480
0, 3041
0, 80
0, 1680
0, 208
0, 48
0, 9266
0, 12339
0, 7314
0, 3585
0, -3249
0, -3713
0, 1040
0, 6978
0, 704
0, 0
0, 6065
0, 608
0, 4417
0, 0
0, 1136
0, 0
0, 0
0, -1136
0, 3553
0, 10035
0, 769
0, 3777
0, 5585
0, 7586
0, 0
0, 3024
0, 0
0, 0
0, -304
0, 29959
0, 0
0, 0
0, 1456
0, 5937
0, 3809
0, 4161
0, -304
0, 3441
0, 3569
0, 7250
0, 1888
0, 1216
0, 0
0, 0
0, 8578
0, 3313
0, 0
0, 0
0, 1680
0, 0
0, 160
0, -1824
0, 2849
0, 336
0, 3504
0, 4417
0, 5537
0, 6577
0, 0
0, 0
0, 0
0, 1792
0, 6721
0, 0
0, 0
0, 448
0, -3136
0, 5569
0, -528
0, -464
0, 5217
0, -48
0, 2737
0, 1009
0, 0
0, 0
0, 0
0, 2288
0, 1040
0, 6722
0, 0
0, 0
0, 1776
0, 0
0, -800
0, 2881
0, -2081
0, -4417
0, 3777
0, 2352
0, 3344
0, 0
0, 0
0, -5745
0, -1472
0, -1376
0, 0
0, 0
0, 1152
0, 1632
0, 5218
0, 7346
0, 6961
0, 6257
0, 6306
0, 4721
0, 2432
0, 4273
0, 0
0, 0
0, 0
0, 1361
0, 6017
0, 0
0, 800
0, 1648
0, 976
0, 5473
0, 528
0, 8466
0, 5185
0, 8882
0, 4385
0, 1264
0, 0
0, 0
0, 0
0, 36760
0, 3600
0, 4033
0, 1120
0, 0
0, 0
0, 0
0, 2193
0, 1424
0, 8066
0, 4513
0, 6385
0, 2241
0, 4705
0, 0
0, 0
0, 0
0, -15683
0, 9139
0, 0
0, 0
0, 0
0, 3728
0, 7425
0, 320
0, 8322
0, -3617
0, 4865
0, 1008
0, 7138
0, 3137
0, 0
0, 0
0, 3008
0, 0
0, 705
0, 112
0, 144
0, 1056
0, 0
0, 2417
0, 8834
0, 4849
0, 7122
0, -1889
0, 3025
0, 9138
0, 7233
0, 0
0, 0
0, 0
0, 5025
0, 7058
0, 0
0, 1488
0, 0
0, 0
0, 3921
0, 1248
0, -2176
0, 1200
0, 7586
0, 3649
0, 1345
0, 0
0, 496
0, 0
0, 304
0, 6721
0, 0
0, 464
0, 0
0, 0
0, 7057
0, 14740
0, 6642
0, 6498
0, -736
0, 752
0, 14772
0, 5106
0, 0
0, 0
0, 0
0, 0
0, 208
0, 0
0, 0
0, 3888
0, 6081
0, -352
0, 7746
0, 2672
0, 736
0, 6594
0, 512
0, 4241
0, -7937
0, 0
0, 0
0, 6449
0, 4513
0, 7666
0, 0
0, 0
0, 2704
0, 0
0, -336
0, 2673
0, 13507
0, -8434
0, 8770
0, 4721
0, 3056
0, 0
0, 0
0, 0
0, 9666
0, 2608
0, 608
0, 0
0, 0
0, 3648
0, 8434
0, 4401
0, 17413
0, 14276
0, 10514
0, 1200
0, 9090
0, 6370
0, 0
0, 0
0, 0
0, 0
0, 6545
0, 0
0, 592
0, 1072
0, 400
0, 1088
0, 14851
0, 5809
0, 1376
0, 5921
0, 7330
0, 1120
0, 608
0, 0
0, 0
0, -256
0, -512
0, 7169
0, 0
0, 1584
0, 0
0, 1600
0, 304
0, 5841
0, -2705
0, -160
0, 6882
0, -609
0, 5986
0, 0
0, 0
0, 0
0, 13059
0, 4497
0, 0
0, 752
0, 4689
0, 208
0, -2304
0, 7073
0, 10402
0, 2801
0, 3985
0, 16372
0, -384
0, -6194
0, 0
0, 2656
0, 48
0, 1440
0, 1681
0, 1584
0, 3728
0, 896
0, 704
0, -2561
0, 4385
0, 4865
0, -4321
0, 1041
0, 8595
0, 5586
0, -1456
0, 0
0, 0
0, 0
0, -8434
0, 4754
0, 800
0, 0
0, 1280
0, 0
0, 9667
0, 2481
0, 5809
0, 12771
0, 3025
0, -2480
0, 14404
0, 0
0, 0
0, 0
0, 1057
0, 4257
0, 144
0, 0
0, 0
0, 2976
0, 3969
0, -144
0, 5730
0, 5905
0, 12291
0, 6258
0, 4738
0, 1328
0, 6433
0, 0
0, 0
0, 0
0, 5169
0, 528
0, 0
0, 784
0, 0
0, 1073
0, 4033
0, -2561
0, 3825
0, 9122
0, -4369
0, 5970
0, 0
0, 0
0, 0
0, 0
0, 26135
0, 8130
0, 1152
0, 0
0, 0
0, 1488
0, 2240
0, 4561
0, -320
0, 3073
0, 1313
0, 7394
0, 3489
0, -6593
0, 0
0, 1392
0, 2608
0, -5297
0, 1120
0, 768
0, 2432
0, 2048
0, 1680
0, 13428
0, -3649
0, 12003
0, 4898
0, -1040
0, -2081
0, 689
0, 0
0, 0
0, 3664
0, 1920
0, 8386
0, 0
0, 0
0, 2112
0, 3680
0, 6865
0, -5313
0, 8162
0, 7922
0, 6865
0, 2768
0, -9282
0, 1825
0, -640
0, 0
0, 19188
0, -4561
0, 6226
0, 0
0, 0
0, 0
0, 0
0, 4897
0, 7058
0, 14660
0, 5841
0, 7426
0, 5170
0, 3457
0, 0
0, 1760
0, 0
0, 0
0, -6610
0, 3056
0, 512
0, 0
0, 0
0, 144
0, 4001
0, 3553
0, 8354
0, 1425
0, 4881
0, 1744
0, 2401
0, 0
0, 0
0, 0
0, 6913
0, 4753
0, 0
0, 0
0, 1520
0, 0
0, 785
0, -3312
0, 6482
0, 7922
0, -400
0, 3985
0, 10130
0, 1873
0, 0
0, 0
0, 0
0, 6209
0, 2608
0, 1632
0, 0
0, 3056
0, 0
0, 912
0, 5025
0, 4593
0, 992
0, 2945
0, 4274
0, 2320
0, 0
0, 0
0, 0
0, 21765
0, 10722
0, 1344
0, 0
0, 0
0, 2016
0, 0
0, 3041
0, 2352
0, -128
0, 240
0, 3729
0, 8738
0, 4001
0, 0
0, 0
0, 0
0, -5794
0, 192
0, 1136
0, 1424
0, 1664
0, 0
0, 3873
0, 2689
0, 2097
0, -7794
0, 496
0, -2433
0, 14803
0, 6946
0, 0
0, 6129
0, 2800
0, 1328
0, 2480
0, 608
0, 0
0, 528
0, 0
0, 2560
0, 7138
0, 5105
0, -961
0, 2688
0, 10179
0, -5761
0, 0
0, 0
0, 0
0, -960
0, 5249
0, 6417
0, 512
0, 1168
0, 64
0, 8290
0, 3585
0, 12963
0, -3697
0, 2960
0, 3969
0, 10867
0, 2193
0, 0
0, 0
0, 0
0, 11410
0, 3392
0, 1920
0, 672
0, 1664
0, 432
0, -4129
0, 3697
0, -1585
0, -6481
0, -401
0, 1440
0, 1872
0, 3600
0, 0
0, 0
0, -8001
0, 3105
0, 2657
0, 1232
0, 1728
0, 0
0, 1472
0, 6642
0, -6914
0, 9922
0, 16420
0, 9490
0, 3424
0, 1760
0, 0
0, 0
0, 0
0, -2032
0, 2304
0, 5538
0, 352
0, 3680
0, 0
0, 6690
0, -2208
0, 6033
0, -7826
0, 6514
0, 7682
0, 2433
0, 5361
0, 0
0, 3184
0, 0
0, 14851
0, 16548
0, 368
0, 0
0, 0
0, 0
0, 13604
0, 5874
0, 5921
0, 9330
0, 3649
0, -416
0, 1808
0, -1136
0, 0
0, 0
0, 0
0, 11330
0, -640
0, 880
0, 1024
0, 0
0, 4625
0, 2833
0, 1232
0, 11235
0, 4546
0, 3377
0, 8562
0, -14996
0, 0
0, 0
0, 0
0, 1248
0, 4417
0, 32071
0, 1264
0, 0
0, 0
0, 400
0, 5233
0, 10467
0, 1777
0, 19988
0, 2705
0, 6034
0, 7634
0, 0
0, 0
0, 0
0, 3985
0, 7985
0, 0
0, 0
0, 1008
0, 0
0, 7986
0, 1616
0, 12163
0, 5201
0, 3665
0, 9730
0, 5985
0, 10098
0, 0
0, 0
0, 18164
0, 4849
0, 7474
0, 0
0, 1248
0, 672
0, 0
0, -3056
0, 1744
0, 8418
0, -7746
0, 4385
0, 3601
0, 1984
0, 0
0, 5457
0, 0
0, 0
0, -256
0, 4705
0, 0
0, 0
0, 0
0, 32
0, 9890
0, 12323
0, -336
0, -1937
0, 7842
0, 8722
0, 3505
0, 0
0, 0
0, 0
0, 1457
0, 816
0, 848
0, 384
0, 0
0, 0
0, 1664
0, 7186
0, 5474
0, 5505
0, 3617
0, 272
0, -2865
0, 2001
0, 0
0, 6257
0, 1280
0, 10882
0, 656
0, 1408
0, 1504
0, 0
0, 2160
0, 512
0, 2817
0, -15300
0, 7650
0, 2640
0, -5586
0, 160
0, 0
0, 0
0, 0
0, 0
0, 1920
0, 5554
0, 0
0, 0
0, 2624
0, 0
0, 4657
0, 2320
0, -6514
0, -8435
0, 736
0, 4049
0, 240
0, 0
0, 4497
0, 2160
0, -1584
0, -7074
0, 0
0, 240
0, 0
0, 1296
0, 4769
0, 6002
0, 7650
0, -1457
0, 11251
0, -2865
0, 3649
0, 3185
0, 0
0, 144
0, 0
0, 7889
0, 2960
0, 0
0, 0
0, 256
0, 912
0, 12275
0, 5809
0, -4001
0, 16180
0, 14196
0, 5074
0, 2689
0, 0
0, 0
0, 0
0, 0
0, 0
0, 7025
0, 240
0, 0
0, 2304
0, 1184
0, -640
0, 4225
0, -4497
0, -1504
0, 5809
0, 2128
0, 11251
0, 0
0, -2864
0, 240
0, 6129
0, 3216
0, 0
0, 0
0, 0
0, 0
0, 3713
0, 6273
0, -6625
0, -3361
0, 5585
0, 753
0, 15268
0, -560
0, 0
0, 0
0, 0
0, 14931
0, 1025
0, 0
0, 0
0, 0
0, 0
0, 7649
0, -8994
0, -5313
0, 7298
0, -2288
0, 144
0, 4449
0, 1824
0, 0
0, 0
0, 3056
0, 2656
0, 4065
0, 0
0, 0
0, 0
0, -2768
0, -864
0, -304
0, 1824
0, 6305
0, 5569
0, 512
0, 21061
0, 0
0, 0
0, 0
0, -128
0, 6529
0, 0
0, 0
0, 0
0, 1136
0, 3488
0, -3729
0, 15059
0, -2848
0, 5554
0, 3953
0, -9411
0, 3985
0, 0
0, -4161
0, 0
0, -7425
0, -1232
0, 0
0, 1776
0, 3280
0, 0
0, 2160
0, 6161
0, -768
0, 9058
0, 4097
0, 4337
0, -5970
0, -5570
0, 0
0, 0
0, 0
0, 3456
0, 10803
0, 608
0, 976
0, 0
0, 0
0, 6738
0, 4353
0, 1296
0, -5089
0, 8450
0, 3649
0, 7634
0, 0
0, 0
0, 3888
0, 13187
0, 1312
0, 512
0, 96
0, 416
0, 0
0, 5698
0, -2320
0, 3681
0, -2816
0, 3089
0, 2592
0, 4257
0, 2865
0, 0
0, 0
0, 8017
0, 6065
0, 7234
0, 0
0, 1184
0, 0
0, 880
0, -2641
0, 2800
0, 4353
0, 2160
0, 4785
0, 11571
0, 4962
0, 7425
0, 0
0, 0
0, 0
0, 0
0, 7906
0, 208
0, 480
0, 0
0, 0
0, -688
0, 6033
0, 12163
0, 5537
0, 3361
0, 4545
0, 2736
0, 0
0, 0
0, 0
0, -880
0, 13843
0, 0
0, 0
0, 816
0, 0
0, -2897
0, -1856
0, 1904
0, 3425
0, 1361
0, 2272
0, 8098
0, 913
0, 0
0, 0
0, 4561
0, 10370
0, 14211
0, 0
0, 336
0, 0
0, -2848
0, 1585
0, 16
0, 12083
0, -3921
0, 2289
0, 2481
0, 4513
0, 2401
0, 0
0, 0
0, 0
0, 10738
0, 6113
0, 320
0, 0
0, 0
0, 5105
0, -112
0, 7090
0, 11506
0, 9282
0, 6034
0, 8882
0, 1553
0, 3120
0, -6129
0, 0
0, -12915
0, -2736
0, 128
0, 0
0, 0
0, 0
0, 3409
0, 5905
0, -2560
0, 2561
0, 2592
0, 288
0, -6082
0, 3921
0, 0
0, 0
0, -1024
0, 1824
0, 6545
0, 128
0, 0
0, 64
0, 0
0, 6226
0, -3425
0, 7634
0, 7186
0, 2400
0, 2321
0, 224
0, 4241
0, 0
0, 0
0, 5761
0, 0
0, 5873
0, 0
0, 688
0, 0
0, 1248
0, -512
0, 3793
0, 7858
0, 7762
0, 5794
0, -9314
0, 4513
0, 0
0, 0
0, 0
0, -6786
0, 192
0, 4257
0, 0
0, 1632
0, 960
0, 2817
0, 2865
0, -961
0, -2465
0, 256
0, 592
0, 4625
0, 11955
0, 0
0, 0
0, 0
0, 18676
0, 5009
0, 0
0, 1328
0, 3872
0, 368
0, -768
0, 496
0, 17044
0, 1456
0, 480
0, 8962
0, 10066
0, 848
0, 0
0, 0
0, 0
0, -2352
0, 13956
0, 0
0, 160
0, -1600
0, 0
0, 10819
0, 5714
0, 7314
0, 3601
0, -3409
0, 9618
0, 4097
0, 0
0, 0
0, 0
0, 1872
0, 3985
0, 5857
0, 832
0, 0
0, 0
0, 944
0, -2065
0, 4017
0, -1649
0, 8146
0, 4385
0, 5202
0, 2928
0, 0
0, 4032
0, 0
0, -3584
0, 3553
0, 256
0, 0
0, 0
0, 0
0, 8706
0, 1360
0, 7634
0, 4674
0, 5745
0, 3921
0, -688
0, -224
0, 0
0, 0
0, 0
0, 768
0, -4593
0, 1744
0, 0
0, 608
0, 112
0, 5217
0, 5042
0, 1792
0, 976
0, 5169
0, -16
0, 704
0, 0
0, -3600
0, 4977
0, 0
0, -11442
0, 5922
0, 0
0, 944
0, 0
0, 0
0, 2465
0, 7394
0, -448
0, 2145
0, 5185
0, 4657
0, -1024
0, 0
0, 2800
0, 0
0, 9714
0, 15316
0, 0
0, 0
0, 0
0, 464
0, 1856
0, 7233
0, 3777
0, 1136
0, 7937
0, 6913
0, 5921
0, 5729
0, 0
0, 0
0, 2496
0, 13411
0, 10787
0, 176
0, 672
0, 0
0, 480
0, 912
0, 3040
0, 3617
0, 8962
0, 9555
0, 9186
0, -4785
0, 0
0, 0
0, 11890
0, 5393
0, 2400
0, 5825
0, 0
0, 0
0, 0
0, 0
0, 8738
0, 5761
0, 1985
0, -512
0, 15188
0, 3249
0, 7250
0, 0
0, 0
0, 0
0, 5681
0, 5521
0, 0
0, 800
0, 0
0, 0
0, 10018
0, 9347
0, 6242
0, 1632
0, -2945
0, -1360
0, 9955
0, 1760
0, 0
0, 0
0, -2608
0, -1424
0, 19173
0, 0
0, 0
0, 1040
0, 0
0, 4001
0, 5506
0, 4049
0, 13219
0, 16436
0, 3745
0, 3569
0, 0
0, 8754
0, 1552
0, -2688
0, 1120
0, 4001
0, 704
0, 0
0, 0
0, 720
0, 14308
0, -1984
0, 4465
0, -8626
0, 6786
0, 1953
0, 640
0, 0
0, 4097
0, 0
0, 8049
0, 2352
0, 0
0, 0
0, 2881
0, 1744
0, 11891
0, 5953
0, 6129
0, 6386
0, 4017
0, 4225
0, 6673
0, 9058
0, 0
0, 0
0, 0
0, -1184
0, 5794
0, 0
0, 320
0, 1248
0, 1344
0, 7842
0, -2432
0, 6193
0, -1584
0, 11235
0, 1776
0, 15091
0, 0
0, -1504
0, 0
0, -1008
0, -6449
0, 7474
0, 0
0, 128
0, 0
0, 528
0, 6177
0, 6962
0, 9955
0, 6770
0, 3153
0, 672
0, 3105
0, 0
0, 0
0, 0
0, 1536
0, 3328
0, 0
0, 528
0, 0
0, -4641
0, 3937
0, -5073
0, 5489
0, 15140
0, 3841
0, 752
0, 6882
0, 4065
0, 0
0, 0
0, 0
0, 8145
0, -512
0, 2576
0, 0
0, 0
0, 0
0, 7601
0, 3152
0, 19861
0, 336
0, 4818
0, 8178
0, 17588
0, -240
0, 0
0, 0
0, 3120
0, 4225
0, 5457
0, 0
0, 0
0, 512
0, 1680
0, -3632
0, -2257
0, 384
0, 8402
0, 6241
0, -1200
0, 3073
0, 448
0, 4993
0, 0
0, 0
0, 1088
0, 0
0, 592
0, 0
0, 0
0, 8450
0, 4833
0, 2977
0, 864
0, 2913
0, 1328
0, 13924
0, 1920
0, -1264
0, 0
0, 0
0, 0
0, 4433
0, 320
0, 0
0, 400
0, 1072
0, -160
0, 7250
0, 6466
0, -1713
0, -2448
0, -1568
0, 4064
0, 4193
0, 0
0, 0
0, 5874
0, 7601
0, 3520
0, 0
0, 0
0, 0
0, 0
0, 448
0, 8130
0, 5282
0, -1905
0, 4577
0, 5441
0, -1472
0, 0
0, 0
0, 8562
0, 0
0, 6929
0, 0
0, 944
0, 288
0, 4961
0, 6818
0, 5073
0, -384
0, 4353
0, 9362
0, 12115
0, 5730
0, 6562
0, 0
0, 0
0, 4769
0, 0
0, 304
0, 848
0, 736
0, 288
0, 0
0, 6049
0, -2897
0, 736
0, 5794
0, 4193
0, 10690
0, 12211
0, 0
0, 0
0, 0
0, 368
0, 4657
0, 5249
0, 0
0, 608
0, 0
0, 0
0, -3601
0, 5745
0, 5506
0, -2304
0, -224
0, 13155
0, 1969
0, 0
0, 0
0, -3441
0, -4641
0, 12083
0, 0
0, 0
0, 848
0, 0
0, -3041
0, 4209
0, -1857
0, -7026
0, 10243
0, 10850
0, 3905
0, 28983
0, 0
0, 0
0, 0
0, 6641
0, 5714
0, 0
0, 0
0, 2960
0, 352
0, 7937
0, 832
0, 6417
0, 7170
0, 1393
0, 608
0, 2801
0, 3008
0, 0
0, 1616
0, 19060
0, 12050
0, 5553
0, 496
0, 0
0, 3264
0, 0
0, 1104
0, 1456
0, 1248
0, 992
0, 11555
0, -4625
0, 6226
0, 0
0, 0
0, 0
0, 0
0, 14612
0, 768
0, 688
0, 0
0, 0
0, 11843
0, 1312
0, 14387
0, 2609
0, 12931
0, 6049
0, 7906
0, 3009
0, 0
0, 1776
0, 0
0, -2560
0, -672
0, 960
0, 688
0, 0
0, 0
0, 7137
0, 2097
0, 2065
0, -944
0, 528
0, 768
0, -1488
0, 4081
0, 0
0, 0
0, -5393
0, 1168
0, 3345
0, 0
0, 656
0, 0
0, -448
0, 7234
0, 9251
0, 11923
0, -5745
0, 3921
0, 2657
0, 4065
0, 0
0, 0
0, 0
0, 0
0, -496
0, 0
0, 0
0, 0
0, 496
0, -22757
0, 3601
0, 10850
0, -3409
0, 4097
0, 4081
0, 18564
0, -2529
0, 0
0, 128
0, 0
0, -1776
0, 3729
0, 0
0, 0
0, 0
0, 0
0, 5938
0, 6546
0, -12707
0, -432
0, 1792
0, 2257
0, 4865
0, 1568
0, 0
0, 0
0, 0
0, -3281
0, 11491
0, 0
0, 4417
0, 0
0, -2720
0, -2049
0, -6849
0, 1425
0, 2417
0, -160
0, 5409
0, 3488
0, 0
0, 0
0, 0
0, 0
0, 976
0, 432
0, 0
0, 0
0, 0
0, 5249
0, -656
0, 4977
0, 945
0, 5026
0, 8898
0, 9746
0, 10818
0, 0
0, 0
0, 0
0, -5105
0, 2529
0, 0
0, 0
0, 832
0, 0
0, 224
0, 9267
0, 6386
0, 3232
0, 13891
0, 9634
0, 4625
0, 417
0, 0
0, 0
0, 0
0, 2289
0, 6706
0, 0
0, 2544
0, 1360
0, 2160
0, 3665
0, 9443
0, 4529
0, 1392
0, 1377
0, -737
0, 10066
0, 2576
0, 0
0, 3856
0, -1968
0, -1920
0, 3360
0, 0
0, 2192
0, 0
0, 3249
0, -656
0, -768
0, 2945
0, 11090
0, 9202
0, 5009
0, 15748
0, 0
0, 10242
0, 0
0, 2688
0, 9394
0, 0
0, 128
0, 0
0, 0
0, 352
0, 3392
0, -7874
0, -10387
0, 5153
0, 2177
0, 3265
0, 1376
0, 0
0, 0
0, 2992
0, 2625
0, 8818
0, 1056
0, 0
0, 656
0, 2944
0, 3984
0, 2513
0, 0
0, 624
0, 8707
0, -5569
0, 11411
0, 0
0, 0
0, 0
0, 0
0, 13363
0, 3088
0, 3872
0, 0
0, 0
0, 0
0, -32
0, -6977
0, 1376
0, 4849
0, 3889
0, 5585
0, 3265
0, 3504
0, 0
0, -2016
0, 0
0, 4561
0, 768
0, 0
0, 0
0, 0
0, 8658
0, 2865
0, 5970
0, 13107
0, 5377
0, 2336
0, 5889
0, 3505
0, 0
0, 0
0, -2224
0, -4465
0, 2656
0, 2144
0, 64
0, 0
0, 0
0, 592
0, 5073
0, 1728
0, 2657
0, 8642
0, 3921
0, 1953
0, 0
0, -3088
0, 0
0, 4913
0, -3793
0, 1120
0, 144
0, 0
0, 0
0, 496
0, 2992
0, 4481
0, 15267
0, 80
0, 1792
0, 3409
0, 864
0, 0
0, 0
0, 16
0, 5090
0, 4305
0, 0
0, 1424
0, 928
0, -4513
0, -1905
0, 6290
0, 1984
0, -3473
0, 8722
0, 4705
0, 5793
0, 2513
0, 0
0, 0
0, 1776
0, 11890
0, 6290
0, 0
0, 1088
0, 0
0, 0
0, 3841
0, 5586
0, -48
0, 3281
0, 1760
0, 1280
0, 6098
0, 0
0, 0
0, 0
0, 10242
0, 8145
0, 6258
0, 672
0, 0
0, 192
0, 0
0, 2481
0, 6882
0, -8946
0, -1360
0, 7330
0, 1329
0, 5089
0, 0
0, 0
0, 6465
0, 5857
0, -2705
0, 1152
0, 224
0, 0
0, 272
0, 5617
0, -1857
0, 8546
0, -384
0, 2705
0, 2641
0, -5969
0, -944
0, 0
0, 0
0, 0
0, 1248
0, 3809
0, 0
0, 1728
0, 0
0, 0
0, 4545
0, 8338
0, 800
0, 9618
0, 5281
0, 6481
0, 4401
0, 0
0, 0
0, 0
0, 3057
0, -1393
0, 19108
0, 64
0, 1040
0, 0
0, 0
0, 4737
0, 6833
0, 1744
0, -1345
0, 2881
0, 5073
0, 720
0, 0
0, 0
0, 0
0, 20229
0, 11251
0, 0
0, 0
0, 0
0, 0
0, 5746
0, 4417
0, 6402
0, 3872
0, 2209
0, 4129
0, 3185
0, 8642
0, 0
0, 3600
0, 496
0, 5601
0, 8226
0, 1456
0, 1344
0, 0
0, 3488
0, 0
0, 7137
0, -11747
0, -2272
0, 1680
0, 1712
0, 4833
0, 0
0, 0
0, 0
0, 4064
0, 8066
0, 7538
0, 2624
0, 0
0, 0
0, 272
0, 4897
0, 2865
0, -3392
0, 8706
0, 4993
0, 2705
0, 1456
0, 0
0, 0
0, 0
0, 3392
0, 3777
0, 384
0, 0
0, 1072
0, 0
0, 8290
0, 1312
0, 4833
0, 8578
0, 4625
0, 5778
0, 4785
0, 2513
0, 0
0, 0
0, 0
0, 1472
0, 5281
0, 1936
0, 576
0, 0
0, 0
0, 11170
0, -3248
0, 6497
0, 3729
0, 4865
0, 2545
0, -1137
0, 0
0, 0
0, 0
0, 0
0, -6929
0, 5121
0, 512
0, 0
0, 1600
0, 0
0, -5089
0, -1776
0, 5105
0, 15860
0, 3057
0, 2433
0, 3281
0, 0
0, 0
0, 0
0, 592
0, 2368
0, 96
0, 224
0, 0
0, 1360
0, 5841
0, -2337
0, 2817
0, -2753
0, 1424
0, 128
0, 6257
0, 24854
0, 0
0, 0
0, 11378
0, 0
0, 3841
0, 0
0, 0
0, 0
0, 1168
0, 3409
0, 7185
0, -288
0, 10738
0, 2144
0, -6145
0, -96
0, 7921
0, 0
0, 0
0, 0
0, -2657
0, 5905
0, 0
0, 0
0, 0
0, 2256
0, -2496
0, 9379
0, 9074
0, 9715
0, 1520
0, 2528
0, 2305
0, 0
0, 0
0, -1008
0, -1520
0, 2496
0, 0
0, 1248
0, 240
0, 3296
0, 1936
0, 960
0, 544
0, 8706
0, 8066
0, 2048
0, 3921
0, -784
0, 0
0, 0
0, -8450
0, 5201
0, -3249
0, 720
0, 0
0, 2048
0, 0
0, 10067
0, 5905
0, 2417
0, 7890
0, 2480
0, 3120
0, 1649
0, 0
0, 0
0, 5441
0, -4833
0, -13555
0, 4737
0, 656
0, 0
0, 0
0, 0
0, 1536
0, 6754
0, 1216
0, 2881
0, 5793
0, 6082
0, 13732
0, 0
0, 0
0, 416
0, 0
0, 7729
0, 0
0, 0
0, 0
0, 3408
0, 6434
0, -1872
0, 6721
0, 496
0, 1248
0, 6658
0, 4354
0, 2593
0, 0
0, 0
0, 0
0, 7586
0, 8530
0, 1536
0, 288
0, 752
0, -160
0, 1409
0, 3601
0, 2289
0, 8386
0, -272
0, 3665
0, -1536
0, 2256
0, 0
0, 0
0, 7393
0, 3904
0, 7458
0, 1088
0, 0
0, 1344
0, 0
0, 4385
0, 2289
0, 9715
0, 6178
0, 769
0, -10771
0, 4962
0, 0
0, 0
0, 3200
0, 3568
0, -3680
0, 0
0, 96
0, 1392
0, 0
0, 2512
0, 10819
0, 9554
0, 2240
0, 3409
0, 1825
0, -2224
0, 4961
0, 0
0, 0
0, 0
0, -1024
0, -6066
0, 640
0, 192
0, 0
0, 0
0, 8114
0, 7874
0, 3361
0, 2800
0, 12211
0, 3217
0, 4401
0, 3008
0, 0
0, 8001
0, -496
0, 8530
0, 2929
0, 0
0, 0
0, 0
0, -944
0, 5186
0, 5793
0, 12307
0, -2177
0, 8578
0, -176
0, 544
0, 0
0, 0
0, 0
0, 10578
0, -1648
0, 64
0, 0
0, 0
0, 4385
0, 2273
0, 3825
0, 721
0, 10226
0, 2657
0, 11347
0, 3313
0, -512
0, 0
0, 0
0, 0
0, -1568
0, 8274
0, 1280
0, 0
0, 752
0, 0
0, 6002
0, -1649
0, 10130
0, 8322
0, -5410
0, 2785
0, 3841
0, -1392
0, 0
0, 0
0, 7585
0, -1472
0, 7906
0, 0
0, 720
0, 0
0, 0
0, 3169
0, 3089
0, -3504
0, 3473
0, 5521
0, 2113
0, 20613
0, 10242
0, 0
0, -6593
0, 0
0, 432
0, 0
0, 1248
0, 0
0, 0
0, 7106
0, 20340
0, 8531
0, 5489
0, -4481
0, 3889
0, 5009
0, -320
0, 0
0, 0
0, 0
0, -5218
0, 2449
0, 0
0, 0
0, 0
0, 3440
0, -1137
0, -9202
0, -800
0, 8546
0, 7282
0, -1248
0, -1601
0, 192
0, 0
0, 640
0, 5201
0, 1104
0, 7202
0, 0
0, 1216
0, -1712
0, 0
0, 5473
0, -5634
0, -1280
0, -448
0, -1056
0, -496
0, 12211
0, 1296
0, 0
0, 0
0, 7809
0, -7521
0, 3456
0, 0
0, 0
0, 0
0, 1344
0, 2833
0, -3361
0, 6818
0, -3440
0, 3505
0, 5249
0, 6657
0, 0
0, 0
0, 0
0, -4032
0, 9810
0, 0
0, 192
0, 2977
0, 0
0, -6641
0, -2049
0, 1632
0, 4545
0, 5457
0, 7090
0, 1424
0, 3105
0, 0
0, 0
0, -8850
0, 80
0, 3809
0, 0
0, 1024
0, 0
0, 3808
0, 1057
0, -7425
0, -1712
0, -2977
0, 3105
0, 6129
0, 6897
0, 0
0, 0
0, 0
0, 0
0, -1825
0, 0
0, 0
0, 0
0, 4305
0, 8530
0, 6001
0, 1136
0, 5217
0, -6769
0, -1264
0, 3393
0, 4977
0, 0
0, -7345
0, 0
0, -7234
0, 3152
0, 0
0, 736
0, 0
0, 0
0, 4465
0, -4273
0, 8706
0, 13763
0, 2801
0, 4417
0, 11731
0, 2913
0, 0
0, 0
0, -12931
0, 608
0, -1392
0, 0
0, 0
0, 1920
0, 752
0, 1361
0, -6193
0, -1441
0, -6913
0, 8034
0, -593
0, 13619
0, 0
0, 0
0, 1488
0, 2288
0, 5361
0, 18004
0, 800
0, 0
0, 0
0, 945
0, 3569
0, -2704
0, -944
0, 9667
0, 4081
0, 3137
0, 1696
0, 0
0, 4273
0, 0
0, 10691
0, 7522
0, 0
0, 0
0, 0
0, 0
0, 5361
0, 8803
0, -6001
0, -1473
0, 1297
0, -208
0, -7554
0, 3713
0, 0
0, 0
0, 0
0, 9890
0, 5745
0, 0
0, 0
0, 0
0, 0
0, 12835
0, 11874
0, 4913
0, 7313
0, 2849
0, 6354
0, 16932
0, 272
0, 2832
0, 0
0, 0
0, -1648
0, 16741
0, 400
0, 0
0, 0
0, 1136
0, 7090
0, -5922
0, 18325
0, -5073
0, -608
0, 2721
0, 928
0, 6609
0, 0
0, 7665
0, -928
0, 6321
0, 0
0, 560
0, 1152
0, 3009
0, 1840
0, 9634
0, -8610
0, -4401
0, 5250
0, 1601
0, 10419
0, 6802
0, 0
0, 0
0, 2624
0, 0
0, 15348
0, 768
0, 0
0, 0
0, 784
0, 5105
0, 10354
0, 1712
0, -10498
0, 5106
0, -2129
0, 4610
0, 0
0, 0
0, 0
0, 0
0, 9682
0, 4465
0, 0
0, 0
0, 0
0, 0
0, 6722
0, -608
0, 6033
0, -2513
0, 6049
0, -4497
0, 5234
0, 4273
0, 0
0, 0
0, 1136
0, 2768
0, 0
0, 0
0, 416
0, 0
0, 9171
0, 6242
0, 1552
0, 6482
0, 4209
0, 1345
0, 6706
0, 528
0, 0
0, 992
0, -6001
0, -9826
0, 2945
0, 816
0, 1696
0, 1088
0, 0
0, -1808
0, 4721
0, -2320
0, 7890
0, 2801
0, 2113
0, 4065
0, 3184
0, 0
0, -3232
0, 0
0, -1856
0, 10243
0, 0
0, 144
0, 912
0, 704
0, 2945
0, -2193
0, -6962
0, -2817
0, 3825
0, 7121
0, 4529
0, 0
0, 0
0, 2784
0, 1104
0, 2176
0, 0
0, 0
0, 0
0, 2464
0, 656
0, 1760
0, 1777
0, 1584
0, -1552
0, 3809
0, 14563
0, 3841
0, 1136
0, 4449
0, 0
0, 0
0, 11427
0, 0
0, 0
0, 3376
0, 128
0, 2753
0, 3105
0, 19141
0, -4401
0, 2913
0, 3361
0, 2065
0, 0
0, 0
0, 0
0, 2368
0, 5089
0, 7426
0, 80
0, 1376
0, 1072
0, -5857
0, -4209
0, 6322
0, 7249
0, 4641
0, 4385
0, 4689
0, 1633
0, 560
0, 0
0, 0
0, -4673
0, 5729
0, 0
0, 288
0, 192
0, 512
0, 5057
0, 5473
0, 7234
0, -1344
0, 7938
0, 1632
0, 1792
0, 2881
0, 0
0, 0
0, 2128
0, 0
0, 7938
0, 656
0, 992
0, 0
0, 0
0, -1424
0, 9410
0, 13059
0, 3953
0, -609
0, 5313
0, 1856
0, 0
0, 0
0, 0
0, 1376
0, 0
0, 6786
0, 0
0, 0
0, 5121
0, 0
0, 1984
0, 9858
0, 288
0, -8482
0, 1744
0, -7026
0, 4994
0, 0
0, 0
0, 0
0, 4769
0, 0
0, 0
0, 1392
0, 48
0, 0
0, 7250
0, -1472
0, 2176
0, 10915
0, 3728
0, 736
0, -7602
0, 3905
0, 0
0, 2160
0, -7425
0, 2896
0, 5970
0, 0
0, 0
0, 0
0, 0
0, 1120
0, -656
0, -5937
0, -6449
0, 5169
0, 896
0, 6114
0, 0
0, 560
0, 0
0, 0
0, -1344
0, 5970
0, 0
0, 2304
0, 720
0, 640
0, 3953
0, 4081
0, -6401
0, 5490
0, 304
0, 4049
0, 1344
0, 0
0, 0
0, 0
0, 3264
0, 6001
0, 0
0, 672
0, 2112
0, 864
0, -1185
0, 288
0, -6626
0, 9058
0, 2208
0, 9171
0, 1184
0, 2209
0, 0
0, 0
0, 4673
0, 0
0, 624
0, 320
0, 0
0, 5009
0, 624
0, -912
0, 5089
0, 1393
0, 7954
0, 4961
0, -6081
0, 2496
0, -512
0, 176
0, 0
0, 0
0, 704
0, 5953
0, 0
0, 0
0, 0
0, 0
0, -5570
0, 3345
0, 4801
0, 8018
0, 192
0, 6498
0, 4753
0, 0
0, 0
0, 0
0, 17541
0, 6802
0, 912
0, 0
0, 528
0, 1984
0, 3232
0, -7185
0, -1088
0, 2096
0, -3600
0, 800
0, -624
0, 10851
0, 0
0, 0
0, 2320
0, 2128
0, 4001
0, 416
0, 1696
0, 0
0, 4913
0, 7698
0, 1024
0, -3393
0, 9699
0, 2337
0, 5762
0, -3281
0, 2272
0, -2016
0, 0
0, 0
0, -5185
0, 5314
0, 0
0, 0
0, 0
0, 2336
0, 7634
0, 6002
0, -1248
0, 5217
0, 8050
0, 4481
0, 5394
0, 0
0, 0
0, 0
0, 4049
0, 13923
0, 0
0, 0
0, 0
0, 144
0, -2801
0, -7634
0, 6802
0, 4385
0, -1568
0, 6497
0, 1456
0, 13780
0, 0
0, 3520
0, 0
0, 10338
0, 8098
0, 0
0, 0
0, 2848
0, 0
0, -2304
0, 6241
0, 14196
0, 2848
0, 1760
0, -2241
0, -865
0, 624
0, 0
0, 2544
0, 0
0, 4737
0, 8018
0, 0
0, 400
0, 5953
0, 576
0, 3425
0, 8626
0, -5522
0, -6098
0, 752
0, 5282
0, 13651
0, 3520
0, 0
0, 0
0, -4593
0, 4769
0, 3328
0, 1328
0, 0
0, 224
0, 5953
0, 4065
0, 6049
0, 8818
0, 9314
0, 721
0, 2753
0, 5633
0, 0
0, 0
0, 0
0, 6209
0, 10050
0, 0
0, 0
0, 288
0, 0
0, 176
0, 5777
0, -6577
0, 11555
0, 2705
0, 3185
0, 5521
0, 3313
0, 5121
0, 0
0, 0
0, -2368
0, 6897
0, 0
0, 0
0, 0
0, 0
0, -1568
0, -7474
0, -976
0, 6034
0, 6066
0, 7362
0, 12580
0, 0
0, 0
0, 0
0, 176
0, 208
0, 464
0, 0
0, 0
0, 0
0, 2240
0, 4801
0, -11971
0, 1585
0, -1360
0, 2305
0, -3313
0, 608
0, 0
0, 0
0, 1136
0, 14995
0, 2609
0, 0
0, 304
0, 0
0, 1216
0, 2128
0, -1345
0, 624
0, 2801
0, 2289
0, 2673
0, 9746
0, 2256
0, 0
0, 0
0, 0
0, 3089
0, 8146
0, 0
0, 304
0, 0
0, 0
0, -5889
0, 1441
0, 5681
0, 6754
0, 1856
0, 5073
0, 5825
0, 0
0, -5553
0, 0
0, -3217
0, 128
0, 3488
0, 1504
0, 0
0, 0
0, -4225
0, 1840
0, 6546
0, -1857
0, 1792
0, -4145
0, -336
0, -7522
0, 0
0, 0
0, 0
0, 3713
0, -2865
0, 0
0, 0
0, 304
0, 2048
0, 12659
0, 1248
0, 8770
0, 4465
0, 8178
0, -2593
0, 2769
0, 352
0, 0
0, 0
0, 512
0, 9859
0, 3633
0, 432
0, 0
0, 624
0, -1152
0, 12547
0, 224
0, -8770
0, -5282
0, 9010
0, 10178
0, 1552
0, 0
0, 0
0, 0
0, 0
0, 5281
0, 18164
0, 1152
0, 0
0, 0
0, 3921
0, 6097
0, 7042
0, -1856
0, 10018
0, 4225
0, 11603
0, 14228
0, 0
0, 0
0, 0
0, 8082
0, 6578
0, 1296
0, 0
0, 0
0, 0
0, 5922
0, 1072
0, -1729
0, 6129
0, 7345
0, 3297
0, 2833
0, 1328
0, 0
0, 0
0, 0
0, -464
0, 4641
0, 0
0, 0
0, 0
0, 1968
0, 11011
0, 3441
0, -1152
0, 272
0, 1841
0, 3008
0, 1456
0, 0
0, 0
0, 0
0, -816
0, -1216
0, 3953
0, 0
0, 288
0, 0
0, 0
0, 1184
0, 4577
0, 12083
0, 6673
0, 2945
0, 4785
0, 5986
0, 8706
0, 0
0, 0
0, 14852
0, 5938
0, 0
0, 0
0, 0
0, 0
0, 6401
0, 688
0, 6305
0, 272
0, 2817
0, -2289
0, 6850
0, -432
0, 0
0, 0
0, 0
0, 0
0, 1729
0, 0
0, 832
0, 0
0, 4369
0, -1104
0, 8498
0, 2945
0, -2577
0, -2193
0, 1393
0, 15524
0, 0
0, 0
0, 0
0, 0
0, 3728
0, 0
0, 1760
0, 1744
0, 192
0, 4369
0, 4657
0, -7170
0, 6962
0, 752
0, 5618
0, -2480
0, -3105
0, 0
0, 768
0, 0
0, -2032
0, 6785
0, 1376
0, 720
0, 0
0, 0
0, 4129
0, 5489
0, -1825
0, -1440
0, 896
0, 3857
0, 3584
0, 6353
0, 0
0, 64
0, 7393
0, 7553
0, 6754
0, 0
0, 128
0, 0
0, 960
0, 1072
0, 1712
0, -448
0, -224
0, 6049
0, 2561
0, 4785
0, 2064
0, 0
0, 0
0, 512
0, 7985
0, 3248
0, 0
0, 0
0, 832
0, 1104
0, 2688
0, 880
0, 4209
0, -3569
0, 1824
0, 5233
0, 6450
0, 0
0, 0
0, 9618
0, 2768
0, 9234
0, 0
0, 0
0, 2464
0, 0
0, 7233
0, 5025
0, 2945
0, -2160
0, 2768
0, 4241
0, 4609
0, 1024
0, 0
0, 0
0, 0
0, 7025
0, 2704
0, 0
0, 3792
0, 96
0, 0
0, 4001
0, 5745
0, -1344
0, 6097
0, 14627
0, 6498
0, 5362
0, 0
0, 432
0, 1296
0, 0
0, 5585
0, 5649
0, 80
0, 0
0, 1488
0, 0
0, 2433
0, -4225
0, -6913
0, 5489
0, 4401
0, 10130
0, 7810
0, 0
0, 0
0, 1872
0, 9714
0, 6369
0, 0
0, 0
0, 0
0, 0
0, 11251
0, 1552
0, 4593
0, 2737
0, 5858
0, 2241
0, 10498
0, 1312
0, 0
0, 0
0, 2304
0, 0
0, 8450
0, 0
0, 0
0, 0
0, 0
0, -528
0, 9459
0, -6498
0, -112
0, 13236
0, -1409
0, 5217
0, 2416
0, 0
0, 0
0, 0
0, 0
0, 20389
0, 0
0, 1024
0, 0
0, 4401
0, 4785
0, 6210
0, -912
0, 3553
0, 1120
0, -913
0, 9810
0, 0
0, 0
0, 8210
0, -1616
0, -1312
0, 0
0, 464
0, 0
0, 1904
0, 2512
0, 1184
0, 8018
0, -2689
0, 4305
0, -496
0, -4625
0, 2016
0, 1120
0, 0
0, 0
0, 4385
0, 5153
0, 0
0, 800
0, 0
0, 0
0, 4801
0, -2832
0, 8034
0, 6866
0, 6449
0, 3393
0, 23494
0, -1120
0, 3440
0, 0
0, 0
0, 5489
0, 2145
0, 0
0, 16
0, 0
0, 3441
0, 4561
0, 7410
0, -1360
0, 7810
0, 1232
0, 4881
0, 21605
0, 0
0, 6257
0, 6529
0, 12098
0, 10466
0, 832
0, 0
0, 0
0, 0
0, 4657
0, 8290
0, 704
0, 2657
0, 3297
0, 9634
0, 5522
0, -208
0, 0
0, 0
0, 208
0, 432
0, 6018
0, 288
0, 0
0, 0
0, 1920
0, 4738
0, 560
0, -8242
0, 5201
0, 48
0, 6705
0, 4081
0, 2352
0, 0
0, 0
0, -4961
0, -2113
0, 6114
0, 0
0, 0
0, 0
0, 4097
0, -592
0, 2848
0, -3713
0, -656
0, 3585
0, 4369
0, 6258
0, 0
0, 0
0, 0
0, 0
0, 1152
0, 0
0, 0
0, 0
0, 1104
0, 2513
0, -4081
0, -5265
0, 6338
0, 3760
0, 3793
0, 6434
0, 2720
0, 0
0, 0
0, 0
0, 4289
0, 13475
0, 0
0, 0
0, 0
0, 0
0, 1953
0, 1072
0, 4769
0, -400
0, 2465
0, 1424
0, 464
0, -608
0, 0
0, 0
0, 0
0, 1392
0, 7105
0, 1824
0, 848
0, 2240
0, 0
0, 2592
0, 11074
0, 1249
0, -3969
0, 1377
0, 3777
0, -1184
0, 0
0, 0
0, 0
0, 0
0, 8594
0, 0
0, 1376
0, 0
0, 0
0, 5025
0, -256
0, 1489
0, 4689
0, -3937
0, 80
0, -3233
0, 352
0, 0
0, 0
0, -6641
0, 0
0, 1089
0, 0
0, 0
0, 48
0, 0
0, 1569
0, 3328
0, -2593
0, 10834
0, 6482
0, 4929
0, 2656
0, 2736
0, -1728
0, 0
0, 0
0, 4657
0, 2017
0, 208
0, 2128
0, 2336
0, 528
0, 4257
0, 8610
0, -10499
0, 8466
0, 4545
0, 5633
0, 10195
0, -4561
0, 0
0, 1952
0, 4257
0, 1584
0, 2224
0, 0
0, 1056
0, 1008
0, 0
0, -4193
0, 1024
0, 7666
0, 10514
0, 2304
0, -1649
0, 208
0, 0
0, 0
0, 5073
0, 9266
0, -960
0, 0
0, 0
0, 336
0, 0
0, 5681
0, 1665
0, 5009
0, 5025
0, 4833
0, 1345
0, 9762
0, -848
0, 0
0, 0
0, -5249
0, 6113
0, 5393
0, 0
0, 0
0, 5489
0, 0
0, 3233
0, 8962
0, 9330
0, 1217
0, 3408
0, -656
0, 4929
0, 0
0, -1840
0, 0
0, -6081
0, 2448
0, 0
0, 864
0, 0
0, 0
0, 4786
0, 5393
0, -3825
0, 8290
0, 832
0, 3568
0, 2577
0, 6322
0, 0
0, 0
0, 0
0, -3489
0, -1968
0, 0
0, 0
0, 688
0, 1504
0, 8994
0, -2272
0, -448
0, 1457
0, 12435
0, 2129
0, 7713
0, 3425
0, 0
0, 0
0, 0
0, 6210
0, 10707
0, 816
0, 0
0, 0
0, 0
0, 1920
0, -1184
0, -7681
0, 8050
0, 4305
0, -3745
0, -1937
0, 0
0, 0
0, 0
0, 0
0, -3600
0, 0
0, 256
0, 0
0, 1104
0, 0
0, 4225
0, 6594
0, 8354
0, 38825
0, -1088
0, 3873
0, 3073
0, 0
0, 0
0, 6513
0, 0
0, 4017
0, 0
0, 0
0, 0
0, 0
0, 2177
0, 4881
0, 849
0, 11267
0, 1745
0, 12883
0, -1248
0, 4257
0, 0
0, 0
0, 0
0, -9874
0, 2560
0, 0
0, 0
0, 0
0, 0
0, -432
0, -9218
0, 15187
0, 0
0, 5378
0, 5874
0, 1809
0, 0
0, 0
0, 0
0, 2864
0, 3136
0, 0
0, 0
0, 0
0, 0
0, 3185
0, 6450
0, 2160
0, 7282
0, 2304
0, 4753
0, 768
0, 2993
0, 1584
0, 0
0, 0
0, 6018
0, 16196
0, 1024
0, 0
0, 80
0, 0
0, 5298
0, -768
0, -448
0, 497
0, -736
0, 816
0, 6978
0, 5681
0, 0
0, 0
0, 1681
0, 976
0, 2977
0, 0
0, 1120
0, 0
0, 2016
0, 4337
0, 3761
0, 9938
0, 12627
0, 8418
0, 4785
0, 6258
0, 0
0, -784
0, 0
0, 3584
0, 848
0, 96
0, 0
0, 0
0, 0
0, -2033
0, 4721
0, 7394
0, -416
0, 17668
0, 4721
0, 9939
0, 2576
0, 0
0, 2752
0, 0
0, 0
0, 7986
0, 0
0, 0
0, 0
0, 2720
0, 2480
0, 10723
0, 14323
0, 15860
0, 11410
0, 6561
0, 5265
0, 288
0, 0
0, 0
0, 5457
0, 3377
0, 1536
0, 1216
0, 0
0, 0
0, 0
0, -4289
0, 4017
0, -8097
0, 8898
0, 2017
0, 3232
0, 144
0, 0
0, 0
0, 2160
0, 0
0, 0
0, 27734
0, 0
0, 2432
0, 0
0, 1920
0, 4401
0, -1889
0, -11827
0, -5665
0, 1713
0, 32
0, 6194
0, 0
0, 0
0, 0
0, 0
0, 3809
0, 688
0, 544
0, 640
0, 0
0, 12595
0, 8226
0, -400
0, -5602
0, 1393
0, 6434
0, 4753
0, 11571
0, 0
0, 0
0, 656
0, 0
0, 12948
0, 0
0, 0
0, 0
0, 0
0, 2929
0, 8194
0, 6657
0, 6481
0, 2001
0, 5122
0, 5234
0, 0
0, 0
0, 0
0, 0
0, 4032
0, 3329
0, 1184
0, 0
0, 0
0, 1664
0, 8434
0, -2961
0, 7714
0, 5810
0, 4113
0, 3009
0, 3233
0, 0
0, 0
0, 0
0, 2432
0, 7090
0, 0
0, 0
0, 0
0, 0
0, -3185
0, -4353
0, -3137
0, -6977
0, -1168
0, 1904
0, -4257
0, 1872
0, 0
0, 1776
0, -3056
0, 10771
0, 2769
0, 0
0, 384
0, 0
0, 0
0, 2657
0, 5489
0, 6882
0, 7010
0, 1265
0, 4065
0, 7298
0, -3056
0, 0
0, 2513
0, 8658
0, 0
0, 6802
0, 0
0, 400
0, 0
0, 1872
0, 8274
0, 10258
0, -1425
0, 6818
0, 1600
0, 4209
0, 8402
0, 4865
0, 0
0, 256
0, -9458
0, -848
0, 0
0, 0
0, 432
0, 0
0, 7458
0, 2288
0, 8578
0, 2353
0, -8370
0, 2400
0, -7586
0, 6610
0, 0
0, -8674
0, 0
0, -4161
0, -1760
0, 0
0, 528
0, 0
0, -848
0, 6354
0, 4737
0, -1216
0, 12419
0, 6738
0, 7041
0, 3505
0, 0
0, 0
0, 0
0, 0
0, 6289
0, 5314
0, 0
0, 0
0, 1456
0, 5297
0, 8402
0, -192
0, -9394
0, 2785
0, 4081
0, 6610
0, 16388
0, 0
0, 48
0, 0
0, 0
0, 5665
0, 0
0, 0
0, 0
0, 864
0, 6194
0, 2112
0, 160
0, 2081
0, 1969
0, -1088
0, 5074
0, 2400
0, 0
0, 0
0, -784
0, 6161
0, 11779
0, 0
0, 0
0, 0
0, 0
0, 8065
0, 11539
0, 640
0, 3376
0, 6754
0, 2112
0, -1201
0, 0
0, 0
0, 0
0, 1184
0, -4993
0, 3793
0, 0
0, 2032
0, 0
0, 2561
0, -4321
0, -865
0, -6322
0, 3152
0, 4017
0, 8866
0, -4049
0, 0
0, 0
0, 0
0, -560
0, 1728
0, 0
0, 0
0, 832
0, 336
0, -544
0, 1233
0, 9010
0, 1872
0, 7410
0, -4305
0, 96
0, 3585
0, 0
0, 0
0, 0
0, 6609
0, 3985
0, 464
0, 0
0, 400
0, 0
0, -13171
0, 3441
0, 3265
0, 320
0, -656
0, -3632
0, 7858
0, -5281
0, 0
0, 0
0, 5281
0, 4865
0, 4657
0, 0
0, 800
0, -672
0, 0
0, 2432
0, -416
0, -7458
0, 4417
0, -1056
0, -1600
0, 3841
0, 0
0, 0
0, 0
0, 0
0, -2896
0, 0
0, 1296
0, 0
0, 0
0, 4033
0, -5489
0, 656
0, 11715
0, 944
0, 3761
0, 704
0, 3937
0, 0
0, 0
0, 1344
0, 0
0, 6273
0, 0
0, 336
0, 0
0, 1168
0, 3265
0, 5153
0, -4225
0, 6898
0, 11298
0, 2768
0, 3264
0, -32
0, 0
0, 3088
0, 8097
0, 10387
0, 5138
0, 0
0, 0
0, 1648
0, 0
0, 16
0, 2705
0, 1297
0, 2272
0, 337
0, 5633
0, 11858
0, 1648
0, 0
0, 0
0, 5489
0, 8786
0, 0
0, 0
0, 0
0, 480
0, 8979
0, 10291
0, -816
0, 14852
0, 3744
0, 4609
0, 4689
0, 6882
0, 0
0, 0
0, 9026
0, -624
0, 1920
0, 0
0, 0
0, 0
0, 0
0, 2369
0, -9202
0, 4417
0, -929
0, 5345
0, -6850
0, 7650
0, 880
0, 0
0, 0
0, 224
0, 2832
0, 4097
0, 848
0, 304
0, 0
0, 0
0, 9363
0, 2080
0, 1936
0, 9171
0, -1296
0, -960
0, 17924
0, 256
0, 0
0, 0
0, -2560
0, 7825
0, 0
0, 624
0, 0
0, 0
0, 2688
0, 3969
0, 3232
0, 7297
0, -2401
0, 4673
0, -4674
0, 2353
0, 0
0, 0
0, 0
0, 9538
0, 1392
0, 1552
0, 0
0, 0
0, 0
0, -1184
0, -7650
0, -4881
0, 2801
0, 5201
0, 5138
0, 8722
0, 1552
0, 0
0, 2032
0, 3296
0, 4529
0, 512
0, 1920
0, 528
0, 256
0, 2545
0, 5249
0, 5169
0, 7874
0, -2784
0, 2641
0, -4161
0, -4673
0, 7617
0, 0
0, 496
0, 0
0, 9986
0, 4241
0, 0
0, 0
0, 0
0, 3521
0, 7826
0, 6225
0, 13588
0, 1841
0, -304
0, -2272
0, -368
0, 0
0, -2032
0, 3888
0, 3920
0, 3088
0, 0
0, 0
0, 0
0, 0
0, 5666
0, 5425
0, 5393
0, 7954
0, 4193
0, 512
0, 8322
0, 5810
0, 0
0, 0
0, -6129
0, 10514
0, 3409
0, 0
0, 0
0, 0
0, 0
0, 7442
0, -528
0, 240
0, -9602
0, 7954
0, 8658
0, 7938
0, 0
0, 0
0, 0
0, 0
0, 6817
0, 640
0, 0
0, 0
0, 0
0, 0
0, 48
0, 8546
0, -832
0, 4785
0, 2961
0, 3072
0, -3280
0, 1824
0, 0
0, 0
0, 14611
0, 8770
0, 0
0, 1248
0, 0
0, -1152
0, 720
0, 3616
0, 304
0, 2736
0, 3313
0, 3105
0, 720
0, -4705
0, 0
0, 0
0, 0
0, -4801
0, 4978
0, 1232
0, 192
0, 0
0, 3904
0, 96
0, -737
0, 1553
0, -1968
0, 481
0, 6482
0, 1040
0, 0
0, 0
0, -1008
0, 0
0, 4641
0, 0
0, 0
0, 1024
0, 0
0, 2912
0, 4049
0, 8130
0, -2464
0, -4769
0, -6402
0, 4145
0, 7490
0, 0
0, 0
0, 0
0, -4080
0, 624
0, 0
0, 0
0, 0
0, 0
0, 10099
0, 5490
0, 3729
0, 416
0, 6017
0, 8386
0, -545
0, 161
0, 0
0, 0
0, 0
0, 8081
0, 4401
0, 0
0, 192
0, 528
0, 912
0, 6737
0, 976
0, 6689
0, 5585
0, 2160
0, 3745
0, 2561
0, 0
0, 0
0, 0
0, 1216
0, 2272
0, 0
0, 384
0, 0
0, 48
0, 0
0, 5025
0, -384
0, -2960
0, 4225
0, 13987
0, 7889
0, 4337
0, 0
0, 0
0, 0
0, -4513
0, -80
0, 0
0, 0
0, -1840
0, 1392
0, 2801
0, 1697
0, 528
0, -1633
0, 10243
0, 9858
0, -865
0, 1552
0, 0
0, 0
0, 0
0, -480
0, 3921
0, 0
0, 0
0, 0
0, 4465
0, 3025
0, 1921
0, 3409
0, -1456
0, 2865
0, 7250
0, 352
0, 0
0, 0
0, 0
0, 0
0, 12579
0, 26198
0, 0
0, 304
0, 0
0, 880
0, 4369
0, 1680
0, -2609
0, 10450
0, 2977
0, 3633
0, 18917
0, 6129
0, 0
0, -1904
0, 0
0, 4881
0, 0
0, 2800
0, 1616
0, 0
0, 7042
0, 1632
0, -5121
0, -2769
0, 2880
0, -3905
0, 1184
0, 18676
0, 0
0, 0
0, 0
0, 3104
0, 6338
0, 0
0, 0
0, 0
0, 1952
0, 1216
0, 1088
0, 2576
0, 5137
0, 0
0, 1392
0, 0
0, 448
0, 3409
0, -2016
0, 1168
0, -3761
0, 2560
0, 6785
0, -1601
0, 0
0, 0
0, -6785
0, 2368
0, 11698
0, 896
0, 1760
0, 0
0, 0
0, -11634
0, 12067
0, 12243
0, 8931
0, 2721
0, 4737
0, 4753
0, 2352
0, 0
0, 4609
0, 2208
0, -2032
0, 2401
0, 992
0, 0
0, 2432
0, 0
0, 6258
0, 6929
0, 5425
0, 2977
0, 4337
0, 4321
0, 3793
0, 0
0, 0
0, 0
0, -5105
0, 0
0, 5378
0, 0
0, 464
0, 0
0, 0
0, 2881
0, 3520
0, -1168
0, 5073
0, 4977
0, 4049
0, 6545
0, 0
0, 0
0, 0
0, 384
0, 2928
0, 0
0, 0
0, 720
0, 1344
0, 5602
0, 6642
0, 7393
0, 18549
0, -736
0, 5250
0, 4833
0, -7794
0, 0
0, 0
0, 4016
0, 10034
0, 4225
0, 0
0, 768
0, 0
0, 880
0, 6162
0, 6289
0, 4337
0, 11267
0, 2369
0, 2001
0, -3921
0, 0
0, 6225
0, 0
0, 1600
0, -15251
0, 4545
0, 0
0, 944
0, 0
0, 2480
0, 4449
0, 1776
0, 5585
0, 5154
0, 10275
0, 5233
0, -1825
0, 0
0, 0
0, 1968
0, 3920
0, 8210
0, 320
0, 0
0, 0
0, 0
0, 5313
0, 3425
0, 2624
0, 5169
0, 2096
0, 6322
0, 3889
0, 192
0, 0
0, 0
0, 6498
0, 0
0, 4689
0, 480
0, 0
0, 0
0, 0
0, 4961
0, 10946
0, 4993
0, 8738
0, 2465
0, 1296
0, 928
0, 0
0, 0
0, -112
0, 0
0, 240
0, 23493
0, 0
0, 0
0, 0
0, 320
0, 4657
0, -3617
0, 3969
0, 1056
0, 1889
0, 1520
0, -3280
0, 0
0, 0
0, 0
0, 1072
0, 6209
0, 0
0, 0
0, 0
0, 48
0, -593
0, 14803
0, 1153
0, 10707
0, 9506
0, 144
0, 2865
0, -1809
0, 0
0, 0
0, 0
0, -656
0, -1840
0, 528
0, 0
0, 3872
0, 0
0, 6930
0, 8930
0, 1856
0, 3649
0, -224
0, 1984
0, 1105
0, 0
0, 0
0, 0
0, 7825
0, 4401
0, 4241
0, 384
0, 0
0, -512
0, 0
0, 10483
0, 5409
0, 4193
0, 7074
0, 6289
0, 1297
0, 3185
0, 0
0, 0
0, 0
0, 2208
0, 16211
0, 0
0, 0
0, 288
0, 1920
0, 5889
0, 10611
0, 3441
0, 864
0, 3201
0, 2449
0, 2192
0, 11027
0, 0
0, 0
0, 0
0, -2288
0, 6546
0, 464
0, 0
0, 0
0, 0
0, -1665
0, 1505
0, -8258
0, 4897
0, -2321
0, 2544
0, 1424
0, -5409
0, 0
0, 0
0, 0
0, 2225
0, 5153
0, 0
0, 0
0, 960
0, 0
0, 7170
0, 2144
0, -12035
0, 2545
0, 11155
0, -2864
0, 2496
0, 0
0, 0
0, 0
0, 0
0, 1168
0, 160
0, 0
0, 688
0, 3440
0, 7041
0, 48
0, 11475
0, -7682
0, 3089
0, 3841
0, -9666
0, 1152
0, 0
0, 0
0, -4080
0, 0
0, -4929
0, 752
0, -64
0, 2144
0, 0
0, 224
0, 3825
0, 8386
0, 6018
0, 4113
0, 7137
0, 144
0, -1232
0, 0
0, 0
0, 160
0, 7665
0, 3456
0, 0
0, 0
0, 0
0, 0
0, 2593
0, -6706
0, -1920
0, 4097
0, 3665
0, 6354
0, 3121
0, 0
0, 0
0, 2640
0, 1697
0, -2545
0, 0
0, 0
0, 0
0, 0
0, -16612
0, 6337
0, 2481
0, -4385
0, 2896
0, 3169
0, -5649
0, 8114
0, 0
0, 224
0, 0
0, 0
0, -832
0, 0
0, 0
0, 0
0, 0
0, 8930
0, -3329
0, -15747
0, 192
0, 720
0, 2144
0, 3264
0, 11970
0, 0
0, 0
0, 0
0, 10866
0, 2145
0, 0
0, 0
0, 3344
0, 0
0, 16548
0, -176
0, 3889
0, -2736
0, -1281
0, 2641
0, 2433
0, 0
0, 0
0, 0
0, 0
0, 3713
0, 0
0, 0
0, 0
0, 0
0, -7809
0, 4305
0, 8338
0, 5153
0, 2400
0, -6658
0, 6738
0, 6689
0, 0
0, 0
0, 0
0, 5521
0, 5969
0, 0
0, 0
0, 0
0, 0
0, 6594
0, 6033
0, -7266
0, 3489
0, -1665
0, 1521
0, 10723
0, 5569
0, 0
0, 0
0, 3617
0, 1024
0, 7506
0, 0
0, 0
0, 0
0, 0
0, 1873
0, 5569
0, 10867
0, 3841
0, 928
0, -3681
0, 7298
0, 1696
0, 4113
0, 0
0, 0
0, -384
0, 0
0, 0
0, 0
0, 160
0, 576
0, -4850
0, 5553
0, 4305
0, 15268
0, 1344
0, 2129
0, -5025
0, 0
0, 0
0, 64
0, 6882
0, 1745
0, 0
0, 0
0, 0
0, 0
0, 2529
0, 5089
0, 8210
0, 1824
0, 8627
0, 3729
0, -8739
0, 13251
0, 0
0, 0
0, 128
0, 2656
0, 9138
0, 0
0, 0
0, 1040
0, 448
0, -18421
0, 2417
0, -16900
0, 4785
0, -1344
0, 4161
0, 2400
0, 0
0, 0
0, 256
0, 0
0, 224
0, 0
0, 0
0, 0
0, 0
0, 2097
0, 3104
0, -1040
0, -5281
0, 18580
0, 2080
0, -1552
0, 2032
0, 0
0, 0
0, 0
0, 21493
0, -2065
0, 1184
0, 0
0, 0
0, 0
0, 11170
0, 1825
0, 144
0, 4865
0, -2016
0, 848
0, 7650
0, 6274
0, 5137
0, 0
0, 0
0, -2944
0, 4593
0, 0
0, 0
0, 2192
0, 1200
0, 9139
0, 7090
0, 8786
0, 3281
0, 2881
0, 8946
0, -1408
0, 0
0, 0
0, 0
0, 0
0, -6321
0, 5570
0, 0
0, 1248
0, 0
0, 1825
0, 8130
0, -928
0, 4225
0, 8082
0, 3633
0, 496
0, -6017
0, 0
0, 0
0, 2384
0, 3953
0, 4930
0, 0
0, 608
0, 0
0, 0
0, 3121
0, 6113
0, -256
0, -2544
0, 7282
0, 7154
0, 11026
0, 4273
0, 0
0, 0
0, 0
0, -4001
0, 2529
0, 0
0, 16
0, 0
0, 0
0, 929
0, 13012
0, 2256
0, 4033
0, -2289
0, 1168
0, -7137
0, 0
0, -3744
0, 1856
0, 11346
0, 0
0, 8066
0, 0
0, 0
0, 0
0, -16500
0, 6866
0, 3953
0, 6786
0, 2320
0, 5825
0, 6226
0, -4593
0, 0
0, 1808
0, 0
0, 4961
0, 6529
0, 0
0, 0
0, 0
0, 0
0, 913
0, -1520
0, 4865
0, 880
0, -368
0, -1169
0, 3953
0, -1361
0, 0
0, 0
0, -8642
0, -2416
0, 4369
0, 1056
0, 0
0, 528
0, 864
0, 8226
0, 2913
0, 12227
0, 688
0, 833
0, 9922
0, 2337
0, 464
0, -3472
0, 0
0, 6849
0, -1040
0, 4641
0, 0
0, 3728
0, 0
0, 5137
0, 4529
0, -3697
0, 5825
0, 2945
0, 2704
0, 5281
0, 3680
0, 0
0, 80
0, 0
0, 15859
0, -5953
0, 0
0, 1568
0, 640
0, 4321
0, 8546
0, 5345
0, 12867
0, 6578
0, 3761
0, 1392
0, -2449
0, 1424
0, 0
0, 0
0, 0
0, 0
0, -400
0, 0
0, 0
0, 2176
0, 0
0, 16388
0, 19845
0, 1665
0, 6914
0, 5361
0, -4593
0, 4801
0, 0
0, 0
0, 0
0, 7361
0, -1264
0, 5634
0, 0
0, 96
0, 0
0, 0
0, 2161
0, 7281
0, -6274
0, 1200
0, -3905
0, 1921
0, 2560
0, 0
0, 0
0, 4048
0, 18388
0, 5954
0, 0
0, 0
0, 0
0, 0
0, 4849
0, 9442
0, -6833
0, -2288
0, 7714
0, 4497
0, -3969
0, 3009
0, 0
0, 0
0, 0
0, 1200
0, 12419
0, 0
0, 0
0, 0
0, 0
0, 545
0, 448
0, -12051
0, -3969
0, 2881
0, 2144
0, -2112
0, 0
0, 0
0, 0
0, 0
0, 96
0, 5506
0, 0
0, 0
0, 0
0, 0
0, 7218
0, 3712
0, -2401
0, -545
0, -1392
0, -1360
0, 12034
0, 0
0, -64
0, 3360
0, 1248
0, 1216
0, 0
0, 352
0, 0
0, 0
0, 8578
0, 3345
0, -8034
0, 5937
0, 640
0, 976
0, 13779
0, -4561
0, 0
0, 0
0, 0
0, -3520
0, 8146
0, 0
0, 0
0, -32
0, 2128
0, 689
0, -1600
0, -3201
0, 2256
0, 2097
0, 14852
0, 5345
0, 0
0, 0
0, 0
0, 0
0, 1648
0, 4081
0, 0
0, 896
0, 0
0, 3264
0, 4610
0, 8018
0, 9011
0, -1792
0, 5122
0, -5601
0, 144
0, 0
0, 0
0, 0
0, 1024
0, 7345
0, 0
0, 0
0, 0
0, 0
0, 336
0, 2528
0, 2001
0, 5634
0, -64
0, 8306
0, 6177
0, -304
0, 0
0, 0
0, 0
0, -6161
0, -5297
0, 0
0, 0
0, 0
0, -1728
0, -1296
0, 1232
0, -4609
0, -2272
0, 592
0, 7730
0, 881
0, 0
0, 0
0, -3056
0, 9986
0, 2272
0, 4129
0, 192
0, 576
0, 0
0, 1136
0, 1056
0, 1264
0, -5330
0, 2464
0, 3649
0, 6945
0, 1953
0, 0
0, 0
0, 4241
0, 5505
0, 1120
0, 0
0, 0
0, 0
0, 2785
0, 4065
0, 3521
0, 4961
0, 15540
0, 3745
0, 2832
0, 448
0, -1553
0, 0
0, 4625
0, 5233
0, -3441
0, 5681
0, 1104
0, 1104
0, 2576
0, 2816
0, -2401
0, 1184
0, 8578
0, -2417
0, -4801
0, 6738
0, 3393
0, 0
0, 0
0, 3184
0, 0
0, 4386
0, 4049
0, 1456
0, 608
0, 128
0, 176
0, 4817
0, 3857
0, -3729
0, -736
0, 9891
0, 3649
0, -10530
0, 272
0, 0
0, 0
0, 4016
0, 5281
0, 0
0, 0
0, 0
0, 0
0, 5170
0, 2705
0, 1152
0, 12467
0, 2817
0, 12163
0, 8082
0, 9363
0, 944
0, 0
0, -3952
0, 4449
0, -336
0, 480
0, 0
0, 352
0, 1632
0, 6257
0, 4929
0, 5025
0, 5282
0, 1728
0, 5537
0, -992
0, 0
0, -2672
0, 0
0, 0
0, 256
0, 14740
0, 0
0, 368
0, 0
0, 4593
0, 1024
0, -2065
0, 8914
0, 8642
0, 4625
0, 1936
0, 752
0, 0
0, 0
0, 0
0, 0
0, -5409
0, 2032
0, 2464
0, 2752
0, 0
0, 3296
0, -288
0, -8098
0, 15396
0, 5169
0, 1233
0, 2448
0, 4913
0, 0
0, 0
0, 6977
0, 7297
0, 4465
0, 0
0, 0
0, 0
0, 1440
0, 4593
0, 3777
0, 2945
0, -545
0, -2769
0, 3825
0, 64
0, 736
0, 0
0, 9362
0, 6001
0, 8065
0, 8834
0, 0
0, 0
0, 0
0, 0
0, -1168
0, 8066
0, 7409
0, -464
0, 4209
0, 2017
0, 5217
0, 3392
0, 1248
0, 0
0, 0
0, 4369
0, 0
0, 0
0, 704
0, -176
0, 3729
0, -7906
0, 4721
0, -16820
0, 10531
0, 1648
0, 5601
0, 3873
0, -4593
0, 0
0, 0
0, 1824
0, 6641
0, 288
0, 208
0, 0
0, 400
0, 6353
0, 6993
0, 640
0, 7730
0, 160
0, 5073
0, 2641
0, 14211
0, 0
0, 0
0, 0
0, 5553
0, 7442
0, 128
0, -1040
0, 0
0, 0
0, 8498
0, 4049
0, 1632
0, 1472
0, 5106
0, 2977
0, 2273
0, 0
0, 0
0, 0
0, 0
0, 1473
0, 0
0, 752
0, 0
0, 0
0, 4241
0, 4513
0, -2113
0, 7266
0, 9554
0, -192
0, 2016
0, 1072
0, 0
0, 0
0, -5617
0, -12531
0, -1120
0, 0
0, 0
0, 1616
0, 0
0, 2497
0, 4161
0, -3921
0, 4593
0, 2609
0, -2592
0, 2528
0, 336
0, 0
0, 0
0, -656
0, 8450
0, 7249
0, 0
0, 96
0, 0
0, 928
0, 4433
0, -4369
0, 13043
0, 4625
0, -1440
0, 3697
0, 4049
0, -3712
0, 0
0, 0
0, 6625
0, 864
0, 1248
0, 0
0, 0
0, 0
0, 2353
0, -1857
0, 2224
0, 5969
0, 5633
0, -9170
0, -1504
0, 3217
0, 0
0, 0
0, 2464
0, 0
0, 128
0, 0
0, 0
0, -704
0, 0
0, -7122
0, 1616
0, -1681
0, 3024
0, 16
0, 16948
0, 6402
0, 10930
0, 0
0, -3808
0, 0
0, -5633
0, 8770
0, 0
0, 0
0, 0
0, 0
0, 577
0, 3184
0, 1136
0, -6369
0, 1632
0, 4225
0, 624
0, 0
0, 0
0, 2512
0, -3905
0, -1776
0, 288
0, 0
0, 0
0, 0
0, 0
0, 5393
0, 11651
0, 9747
0, 1472
0, 1233
0, 13796
0, 833
0, 0
0, 0
0, -832
0, 2560
0, 3408
0, 0
0, 1088
0, 0
0, 0
0, 5777
0, -14372
0, 5922
0, 13844
0, 3265
0, 10514
0, 3425
0, 3105
0, 0
0, 0
0, 96
0, 3584
0, 3601
0, 0
0, 0
0, 0
0, -688
0, 2192
0, 1792
0, 3664
0, 240
0, -6721
0, 3425
0, -4305
0, 0
0, 0
0, 0
0, 0
0, -8178
0, 0
0, 0
0, 0
0, 0
0, 5409
0, -640
0, 3105
0, 3953
0, -2321
0, 3073
0, 1889
0, 5233
0, 0
0, 0
0, 0
0, 19156
0, 2529
0, 0
0, 496
0, 1072
0, 1920
0, 5889
0, 817
0, 2993
0, 3057
0, 3857
0, 544
0, 9075
0, 2033
0, 0
0, 8946
0, 0
0, 6097
0, 6978
0, 288
0, 0
0, 0
0, 0
0, 1953
0, 7810
0, 6145
0, -2561
0, 3297
0, 3505
0, 11346
0, 0
0, 0
0, 3872
0, 6129
0, 5201
0, 0
0, 0
0, 0
0, 3744
0, 576
0, 8178
0, 6929
0, -1696
0, -96
0, 2929
0, 12723
0, 1728
0, 0
0, 0
0, 0
0, 4833
0, 4097
0, 0
0, 0
0, 0
0, 0
0, -7682
0, 10642
0, -16084
0, -3809
0, -2449
0, 5025
0, 4801
0, 2625
0, 0
0, 0
0, 2160
0, 0
0, -1105
0, 0
0, 0
0, 4993
0, 0
0, 864
0, -720
0, -6433
0, -2241
0, 3985
0, 11379
0, 3057
0, 3312
0, 0
0, 0
0, 0
0, 3552
0, 7154
0, 16
0, 0
0, 6337
0, 1152
0, 4977
0, 432
0, 8434
0, -6081
0, 6274
0, 4001
0, 560
0, 0
0, 3184
0, 0
0, 13299
0, -16
0, 0
0, -672
0, 0
0, 4065
0, 6465
0, 1072
0, 10243
0, -3153
0, 4513
0, 1024
0, 10131
0, 913
0, 0
0, 0
0, 0
0, 3985
0, 1472
0, 1136
0, 0
0, 1520
0, 0
0, -1136
0, 2352
0, -7585
0, -14516
0, 2209
0, 1360
0, 3841
0, 0
0, 288
0, 416
0, -3312
0, -4241
0, 9922
0, 0
0, 0
0, 1344
0, 832
0, 2304
0, 2257
0, 1680
0, -2593
0, 5265
0, 5201
0, 4753
0, 0
0, 0
0, 8834
0, 0
0, -2065
0, 0
0, 0
0, 224
0, 0
0, 880
0, -4129
0, 6417
0, 3121
0, -3696
0, -1905
0, 3073
0, 2480
0, 0
0, 0
0, 0
0, -12595
0, 6625
0, 0
0, 0
0, 0
0, 0
0, 6993
0, 9314
0, 5537
0, 1056
0, 3009
0, 12451
0, -4193
0, 0
0, 0
0, 0
0, -8290
0, -3409
0, 6929
0, 240
0, 0
0, 2064
0, 0
0, 320
0, 832
0, 1249
0, 1760
0, 6962
0, -224
0, 416
0, -560
0, 0
0, 0
0, -768
0, 5137
0, 2032
0, 0
0, 1824
0, 0
0, 8066
0, -6882
0, 4769
0, -352
0, 9891
0, -368
0, 7378
0, 12867
0, 448
0, 0
0, 4257
0, 0
0, 4497
0, 0
0, 0
0, 192
0, 0
0, -6417
0, 1889
0, 3985
0, -6786
0, 12979
0, 9826
0, 3760
0, 1920
0, 0
0, 1648
0, 4097
0, 9474
0, 4385
0, 1024
0, 0
0, 544
0, 0
0, 6226
0, 5730
0, 1520
0, 208
0, 6017
0, 2944
0, 4657
0, 0
0, 32
0, 0
0, 2624
0, -896
0, 0
0, 0
0, 0
0, -2080
0, -2560
0, 5650
0, 7105
0, 8610
0, 11074
0, 3776
0, 5025
0, -3088
0, 0
0, 0
0, 0
0, -5105
0, 112
0, 688
0, 0
0, 0
0, 4481
0, 8658
0, -464
0, 7713
0, 4802
0, 7826
0, -2577
0, 8674
0, 0
0, 0
0, -1008
0, -6977
0, -1328
0, 1216
0, 384
0, 1744
0, 0
0, 0
0, 7762
0, 18372
0, 6225
0, 12067
0, 2929
0, 3441
0, 8113
0, 0
0, 0
0, -833
0, 8145
0, 2736
0, 608
0, 544
0, 1408
0, 0
0, 3296
0, 5233
0, 1969
0, 15828
0, 1505
0, 12323
0, 17412
0, 8610
0, 1712
0, 0
0, 0
0, 15315
0, 2769
0, 992
0, 0
0, 0
0, 0
0, 1857
0, 7570
0, 1377
0, 2144
0, 1184
0, -7458
0, 2385
0, 5873
0, 0
0, 0
0, 10178
0, 8242
0, 7073
0, 0
0, 0
0, 0
0, 0
0, 4481
0, 3281
0, 19860
0, 5794
0, 7330
0, 8114
0, 10242
0, 0
0, 0
0, 0
0, 1360
0, 5569
0, 1312
0, 608
0, 0
0, 6401
0, 4033
0, -2080
0, 2929
0, 3217
0, 4865
0, -4977
0, 2337
0, -801
0, 0
0, 0
0, 0
0, 1936
0, -6657
0, 768
0, 0
0, 192
0, 800
0, 3280
0, 5794
0, 6321
0, -3137
0, 1040
0, 5201
0, 4289
0, 0
0, 0
0, 0
0, -4193
0, 6145
0, 5009
0, 560
0, 80
0, 0
0, 0
0, -368
0, -11059
0, 3025
0, 4033
0, -1152
0, 3361
0, 2161
0, 0
0, 0
0, 0
0, 0
0, -5953
0, 1408
0, 0
0, 624
0, 0
0, 3104
0, 5041
0, -2416
0, 1632
0, 768
0, 480
0, 3009
0, 6002
0, 0
0, 0
0, 304
0, 0
0, 3809
0, 80
0, 160
0, 0
0, 480
0, 9154
0, 448
0, 2721
0, -6066
0, -3041
0, -1584
0, -3905
0, 912
0, 0
0, 0
0, 0
0, 2576
0, 14356
0, 0
0, 0
0, 0
0, -1104
0, 6514
0, 992
0, 7602
0, 4097
0, 3585
0, 5025
0, -512
0, 0
0, 0
0, 0
0, 2608
0, 5953
0, 0
0, 352
0, 0
0, 1040
0, 1568
0, 4401
0, 3921
0, 16612
0, 3681
0, -4849
0, 3921
0, 4449
0, 0
0, 176
0, 0
0, 960
0, 15187
0, 3440
0, 1904
0, 0
0, 576
0, 6498
0, 10242
0, -5362
0, 2160
0, 784
0, 8130
0, 6290
0, 4145
0, 0
0, 0
0, 0
0, -6226
0, -3249
0, 0
0, 1040
0, 992
0, 0
0, 4705
0, -7170
0, 1680
0, 4417
0, 992
0, 3377
0, -3425
0, 0
0, 0
0, 0
0, 4065
