0, 1
0, 27830
0, 5921
0, 5729
0, 5393
0, 5697
0, 6193
0, 5137
0, 5153
0, 5585
0, 5137
0, 5761
0, 30471
0, 7281
0, 5841
0, 5889
0, 5377
0, 5921
0, 5313
0, 5249
0, 5297
0, 5633
0, 6097
0, 31015
0, 6241
0, 5233
0, 5137
0, 5921
0, 5633
0, 6017
0, 5553
0, 5809
0, 5121
0, 6001
0, 30087
0, 6737
0, 5489
0, 6001
0, 5729
0, 5249
0, 5505
0, 5313
0, 5761
0, 5937
0, 5665
0, 31623
0, 7233
0, 6177
0, 5889
0, 5217
0, 5521
0, 5921
0, 5633
0, 6049
0, 5377
0, 5681
0, 31207
0, 7185
0, 6129
0, 5329
0, 5585
0, 5889
0, 5441
0, 5777
0, 5985
0, 5937
0, 5985
0, 31751
0, 6849
0, 6513
0, 5617
0, 6129
0, 5297
0, 5185
0, 5745
0, 5697
0, 6161
0, 5553
0, 32087
0, 6945
0, 5473
0, 5425
0, 5905
0, 5681
0, 6001
0, 5377
0, 5937
0, 5537
0, 5793
0, 33272
0, 6769
0, 5681
0, 5969
0, 5249
0, 5649
0, 5969
0, 5201
0, 5841
0, 5729
0, 5569
0, 33128
0, 7281
0, 6177
0, 6033
0, 5601
0, 5873
0, 5681
0, 5505
0, 5777
0, 5697
0, 6257
0, 32199
0, 6673
0, 6017
0, 6353
0, 5441
0, 5777
0, 5345
0, 5665
0, 5953
0, 5537
0, 6097
0, 32615
0, 6833
0, 6369
0, 5665
0, 5617
0, 5761
0, 5889
0, 5713
0, 5105
0, 5729
0, 5921
0, 34040
0, 7457
0, 6257
0, 5393
0, 5697
0, 4977
0, 5665
0, 5905
0, 5345
0, 5969
0, 5761
0, 35032
0, 6881
0, 4977
0, 5521
0, 6081
0, 5505
0, 6017
0, 5153
0, 5601
0, 6097
0, 5825
0, 34024
0, 7057
0, 5297
0, 5841
0, 5553
0, 6001
0, 5505
0, 5489
0, 6049
0, 5473
0, 5185
0, 34152
0, 7009
0, 6721
0, 5745
0, 52973
0, 5873
0, 6497
0, 5809
0, 5969
0, 6561
0, 5921
0, 5761
0, 5809
0, 5985
0, 6049
0, 4401
0, 5921
0, 5745
0, 5729
0, 5921
0, 5825
0, 6161
0, 5793
0, 6001
0, 5569
0, 5873
0, 4305
0, 5745
0, 5681
0, 6001
0, 6001
0, 5969
0, 6017
0, 5793
0, 5665
0, 5745
0, 5649
0, 4449
0, 5921
0, 5873
0, 6065
0, 6129
0, 5825
0, 5985
0, 5649
0, 5969
0, 5969
0, 5697
0, 4225
0, 5857
0, 5857
0, 6017
0, 5921
0, 5825
0, 5969
0, 5777
0, 6065
0, 5889
0, 5985
0, 4032
0, 5889
0, 5841
0, 6065
0, 5745
0, 5953
0, 6081
0, 5889
0, 6065
0, 5905
0, 6049
0, 3936
0, 5809
0, 6145
0, 5937
0, 5921
0, 5953
0, 5761
0, 6001
0, 6177
0, 5953
0, 6017
0, 3984
0, 5697
0, 5889
0, 5649
0, 5937
0, 6113
0, 5937
0, 6001
0, 5905
0, 5937
0, 5633
0, 3664
0, 5985
0, 5841
0, 5841
0, 5745
0, 6065
0, 5633
0, 5921
0, 5713
0, 6049
0, 6081
0, 4032
0, 5537
0, 5953
0, 5857
0, 6065
0, 5793
0, 5665
0, 5889
0, 5553
0, 6001
0, 5985
0, 4097
0, 5969
0, 5569
0, 5857
0, 6161
0, 5793
0, 5649
0, 5937
0, 5729
0, 6001
0, 5729
0, 3984
0, 5537
0, 5569
0, 5937
0, 6017
0, 5745
0, 6001
0, 5713
0, 5713
0, 5809
0, 5457
0, 3792
0, 5777
0, 5745
0, 5921
0, 5553
0, 5873
0, 6017
0, 5793
0, 5729
0, 6001
0, 5777
0, 4129
0, 5889
0, 5761
0, 5697
0, 5745
0, 5937
0, 5985
0, 5729
0, 6033
0, 5969
0, 5633
0, 3648
0, 5665
0, 6033
0, 5777
0, 5569
0, 5857
0, 6017
0, 5585
0, 6017
0, 5665
0, 5665
0, 3744
0, 5761
0, 5697
0, 5729
0, 5921
0, 5889
0, 5921
0, 5713
0, 5937
0, 5825
0, 5969
0, 3904
0, 5729
0, 5617
0, 5921
0, 5617
0, 5889
0, 5713
0, 5761
0, 5585
0, 5985
0, 5857
0, 3472
0, 5889
0, 5857
0, 5841
0, 5617
0, 5825
0, 5793
0, 5857
0, 5905
0, 5825
0, 5857
0, 3376
0, 5809
0, 5889
0, 5745
0, 5921
0, 5761
0, 5969
0, 5937
0, 5793
0, 5713
0, 5745
0, 3936
0, 5601
0, 5697
0, 6113
0, 5649
0, 5745
0, 5873
0, 5761
0, 5953
0, 6097
0, 5825
0, 3616
0, 5825
0, 5761
0, 5713
0, 5665
0, 5921
0, 6145
0, 5729
0, 5905
0, 5889
0, 5889
0, 3440
0, 5649
0, 5985
0, 6129
0, 5537
0, 5825
0, 6049
0, 5873
0, 5809
0, 5777
0, 5985
0, 3504
0, 5857
0, 5729
0, 6001
0, 5601
0, 6017
0, 5761
0, 5969
0, 6081
0, 5825
0, 5793
0, 3360
0, 5825
0, 5873
0, 5553
0, 5841
0, 5921
0, 5809
0, 5889
0, 6001
0, 5873
0, 5697
0, 3216
0, 5713
0, 5809
0, 5937
0, 5601
0, 5969
0, 5761
0, 6033
0, 5553
0, 5857
0, 5937
0, 3408
0, 5841
0, 5665
0, 5633
0, 5857
0, 5633
0, 5841
0, 5809
0, 5553
0, 5889
0, 6081
0, 3728
0, 5505
0, 5665
0, 5985
0, 5761
0, 5617
0, 5841
0, 6033
0, 5761
0, 5841
0, 5697
0, 3584
0, 5697
0, 5681
0, 5841
0, 5937
0, 5633
0, 5697
0, 5649
0, 5985
0, 5681
0, 5553
0, 3424
0, 5873
0, 5681
0, 5777
0, 5505
0, 5937
0, 5841
0, 5537
0, 5921
0, 5761
0, 5505
0, 3728
0, 5521
0, 5793
0, 5953
0, 5697
0, 5601
0, 5889
0, 5537
0, 5985
0, 5697
0, 5697
0, 3872
0, 5649
0, 5841
0, 5857
0, 5713
0, 6081
0, 5713
0, 5825
0, 5761
0, 5761
0, 5761
0, 3392
0, 5585
0, 5857
0, 5809
0, 5921
0, 5681
0, 5665
0, 5665
0, 5841
0, 5729
0, 5841
0, 3664
0, 5393
0, 5857
0, 5937
0, 5697
0, 5793
0, 5633
0, 5873
0, 5825
0, 5649
0, 5873
0, 3360
0, 5601
0, 5777
0, 5505
0, 5873
0, 5809
0, 5761
0, 5873
0, 5665
0, 5761
0, 5761
0, 3184
0, 5665
0, 5777
0, 6097
0, 5601
0, 5617
0, 5809
0, 5841
0, 5681
0, 5857
0, 5713
0, 3632
0, 5825
0, 5857
0, 5665
0, 5985
0, 5825
0, 5793
0, 5617
0, 5969
0, 6033
0, 5857
0, 3648
0, 5537
0, 5601
0, 5649
0, 5665
0, 5777
0, 6065
0, 5633
0, 5889
0, 5985
0, 5681
0, 3536
0, 5617
0, 5857
0, 6145
0, 5729
0, 5905
0, 5921
0, 5873
0, 5761
0, 5825
0, 5841
0, 3600
0, 5617
0, 5937
0, 6065
0, 5809
0, 5793
0, 5745
0, 6017
0, 5985
0, 5553
0, 5889
0, 3552
0, 5665
0, 6113
0, 5601
0, 5809
0, 5937
0, 5777
0, 6001
0, 5745
0, 5569
0, 5841
0, 3168
0, 5681
0, 5585
0, 5681
0, 5825
0, 5985
0, 5793
0, 5889
0, 5681
0, 5617
0, 5857
0, 3328
0, 5585
0, 5809
0, 5793
0, 5921
0, 5697
0, 5745
0, 5969
0, 5841
0, 5761
0, 6033
0, 3424
0, 5745
0, 5617
0, 5857
0, 5985
0, 5617
0, 5937
0, 5841
0, 5729
0, 5873
0, 5697
0, 3424
0, 5889
0, 5729
0, 5985
0, 5857
0, 5633
0, 5889
0, 5761
0, 5953
0, 5873
0, 5825
0, 3456
0, 5729
0, 5729
0, 5841
0, 5793
0, 5633
0, 5761
0, 5697
0, 5857
0, 5937
0, 5617
0, 3632
0, 5729
0, 5809
0, 5841
0, 5729
0, 6097
0, 5777
0, 5617
0, 5825
0, 5697
0, 5841
0, 3808
0, 5617
0, 5889
0, 5825
0, 5841
0, 5777
0, 5889
0, 5937
0, 5809
0, 5569
0, 5825
0, 3632
0, 5777
0, 5873
0, 5873
0, 5841
0, 5793
0, 5697
0, 6001
0, 6033
0, 5777
0, 5745
0, 3616
0, 5521
0, 6705
0, 5713
0, 5825
0, 6033
0, 5809
0, 5953
0, 5745
0, 5937
0, 5969
0, 3440
0, 5601
0, 5969
0, 5825
0, 5905
0, 5809
0, 6033
0, 6033
0, 5825
0, 5921
0, 6033
0, 3200
0, 5681
0, 5809
0, 6065
0, 6113
0, 5729
0, 5889
0, 6081
0, 5793
0, 5873
0, 5825
0, 3616
0, 5713
0, 5681
0, 5889
0, 6065
0, 5857
0, 6049
0, 5761
0, 6001
0, 5969
0, 5633
0, 3328
0, 5793
0, 5745
0, 5857
0, 5953
0, 5889
0, 5985
0, 5729
0, 6017
0, 5937
0, 5937
0, 3584
0, 5889
0, 5937
0, 6017
0, 5729
0, 5889
0, 5953
0, 5777
0, 5937
0, 5825
0, 6017
0, 4129
0, 6081
0, 6065
0, 6081
0, 6001
0, 6081
0, 5985
0, 6081
0, 6065
0, 6049
0, 6161
0, 14995
0, 6161
0, 6225
0, 5985
0, 6081
0, 6049
0, 6017
0, 6113
0, 6193
0, 6001
0, 6113
0, 11154
0, 6289
0, 6289
0, 5889
0, 6001
0, 5969
0, 6209
0, 6225
0, 6033
0, 6065
0, 6209
0, 11522
0, 6321
0, 5985
0, 6113
0, 6241
0, 6033
0, 6209
0, 6241
0, 6049
0, 6097
0, 5969
0, 9730
0, 6449
0, 6129
0, 6065
0, 6209
0, 6081
0, 6129
0, 5921
0, 6177
0, 6305
0, 6033
0, 9682
0, 6353
0, 5969
0, 6209
0, 6081
0, 6081
0, 6289
0, 6081
0, 6209
0, 6241
0, 6113
0, 9506
0, 6257
0, 6369
0, 6257
0, 6113
0, 6209
0, 6225
0, 6129
0, 6305
0, 5985
0, 6225
0, 9698
0, 6273
0, 6161
0, 6305
0, 6097
0, 6273
0, 6097
0, 6209
0, 6225
0, 6145
0, 6257
0, 9634
0, 6289
0, 6289
0, 6145
0, 6257
0, 6289
0, 5889
0, 6241
0, 6337
0, 7057
0, 6465
0, 9474
0, 6321
0, 6337
0, 6097
0, 6273
0, 6417
0, 6193
0, 6225
0, 6001
0, 6273
0, 6449
0, 9330
0, 6401
0, 6481
0, 6113
0, 6321
0, 6065
0, 6305
0, 6417
0, 6081
0, 6321
0, 6353
0, 9666
0, 6321
0, 6145
0, 6353
0, 6353
0, 6113
0, 6209
0, 6305
0, 6225
0, 6417
0, 6065
0, 9490
0, 6497
0, 6177
0, 6433
0, 6305
0, 6193
0, 6177
0, 6113
0, 7217
0, 6673
0, 6241
0, 9538
0, 6481
0, 6177
0, 6225
0, 6257
0, 6321
0, 6433
0, 6209
0, 6353
0, 6353
0, 6289
0, 9474
0, 6401
0, 6305
0, 6401
0, 6209
0, 6385
0, 6321
0, 6193
0, 6353
0, 6273
0, 6305
0, 9634
0, 6417
0, 6465
0, 6417
0, 6241
0, 6401
0, 6209
0, 6385
0, 6465
0, 6273
0, 6241
0, 9506
0, 6369
0, 6417
0, 6273
0, 6273
0, 6529
0, 6241
0, 6177
0, 6465
0, 6305
0, 6321
0, 9538
0, 6513
0, 6497
0, 6241
0, 6369
0, 6369
0, 6161
0, 6401
0, 6225
0, 6401
0, 6321
0, 9490
0, 6513
0, 6577
0, 6177
0, 6417
0, 7233
0, 6705
0, 6545
0, 6273
0, 6289
0, 6497
0, 9330
0, 6545
0, 6225
0, 6465
0, 6449
0, 6289
0, 6449
0, 6497
0, 6481
0, 6321
0, 6369
0, 9074
0, 6561
0, 6369
0, 6209
0, 6545
0, 6097
0, 6433
0, 6209
0, 6369
0, 6321
0, 6177
0, 5505
0, 6353
0, 6033
0, 6497
0, 6257
0, 6321
0, 6401
0, 6129
0, 6337
0, 6417
0, 6225
0, 4257
0, 6289
0, 6481
0, 6289
0, 6113
0, 6417
0, 6449
0, 6161
0, 6177
0, 6177
0, 6401
0, 3680
0, 6081
0, 6353
0, 6337
0, 6257
0, 6289
0, 6257
0, 6161
0, 6225
0, 6161
0, 6401
0, 2880
0, 6065
0, 6161
0, 6241
0, 6353
0, 6353
0, 6049
0, 6353
0, 6241
0, 6241
0, 6401
0, 3536
0, 6113
0, 6145
0, 6001
0, 6193
0, 6289
0, 6161
0, 6097
0, 5969
0, 6337
0, 6353
0, 3488
0, 6145
0, 6433
0, 5985
0, 6161
0, 5921
0, 6129
0, 6353
0, 6033
0, 6289
0, 6113
0, 3504
0, 5905
0, 6049
0, 6225
0, 6177
0, 6097
0, 6369
0, 5889
0, 6177
0, 6097
0, 5953
0, 3744
0, 6129
0, 6113
0, 6065
0, 6097
0, 6017
0, 6129
0, 6065
0, 6033
0, 6193
0, 6065
0, 3744
0, 5809
0, 5841
0, 5985
0, 5905
0, 6113
0, 6273
0, 6001
0, 6225
0, 6113
0, 5985
0, 3376
0, 5889
0, 6097
0, 6273
0, 5889
0, 6033
0, 6161
0, 5761
0, 6145
0, 5905
0, 6193
0, 3632
0, 5825
0, 6033
0, 6097
0, 5905
0, 6161
0, 5985
0, 5953
0, 6081
0, 5937
0, 6113
0, 3520
0, 5745
0, 6049
0, 5905
0, 5937
0, 6289
0, 6065
0, 6017
0, 6129
0, 5889
0, 6193
0, 2944
0, 5857
0, 6033
0, 5841
0, 6001
0, 5953
0, 5889
0, 5809
0, 5953
0, 5841
0, 6065
0, 3104
0, 5809
0, 6017
0, 5889
0, 6065
0, 5985
0, 5921
0, 6145
0, 5809
0, 6049
0, 5889
0, 3056
0, 5665
0, 5873
0, 5921
0, 6225
0, 5905
0, 5825
0, 6177
0, 5809
0, 6145
0, 5985
0, 3488
0, 5841
0, 5841
0, 6097
0, 6081
0, 5761
0, 5985
0, 6017
0, 6161
0, 5873
0, 5985
0, 3072
0, 5905
0, 5857
0, 6017
0, 6001
0, 5953
0, 5969
0, 5889
0, 6033
0, 5937
0, 5745
0, 3168
0, 6065
0, 6161
0, 6113
0, 6001
0, 6193
0, 5809
0, 6017
0, 6113
0, 6129
0, 6161
0, 3328
0, 5937
0, 5905
0, 6033
0, 6145
0, 5889
0, 6113
0, 5873
0, 6001
0, 6177
0, 6145
0, 3168
0, 6049
0, 5921
0, 5985
0, 6193
0, 6097
0, 6001
0, 5969
0, 5969
0, 6113
0, 6209
0, 3440
0, 5969
0, 5953
0, 6129
0, 6209
0, 6065
0, 6049
0, 6065
0, 6065
0, 6225
0, 6113
0, 3136
0, 6225
0, 5809
0, 6001
0, 6129
0, 6017
0, 6209
0, 6033
0, 5857
0, 6353
0, 6289
0, 2784
0, 6001
0, 5825
0, 6017
0, 6353
0, 5569
0, 6049
0, 6401
0, 6161
0, 6129
0, 5841
0, 2896
0, 6081
0, 5745
0, 6049
0, 6209
0, 5729
0, 6081
0, 6017
0, 5793
0, 6145
0, 5841
0, 3072
0, 5649
0, 5825
0, 6081
0, 6081
0, 6161
0, 6177
0, 5729
0, 6017
0, 6049
0, 5553
0, 2448
0, 5473
0, 5617
0, 6129
0, 5633
0, 5921
0, 6161
0, 5713
0, 5825
0, 5793
0, 5985
0, 2880
0, 5057
0, 5377
0, 5873
0, 5745
0, 5857
0, 5921
0, 5809
0, 5921
0, 5761
0, 6017
0, 2832
0, 5585
0, 5793
0, 5761
0, 6113
0, 6129
0, 5681
0, 5841
0, 5841
0, 5857
0, 5857
0, 2800
0, 5505
0, 5793
0, 6017
0, 5777
0, 5953
0, 5825
0, 6001
0, 5409
0, 6001
0, 5857
0, 2608
0, 5601
0, 5857
0, 5681
0, 5841
0, 5505
0, 6001
0, 5905
0, 5585
0, 6033
0, 5985
0, 2544
0, 5505
0, 5553
0, 5889
0, 5857
0, 5681
0, 5969
0, 5889
0, 5841
0, 5825
0, 5521
0, 2912
0, 5857
0, 5793
0, 5857
0, 5825
0, 5649
0, 5953
0, 5953
0, 5969
0, 6033
0, 5457
0, 2464
0, 6673
0, 5505
0, 5697
0, 5729
0, 5825
0, 6081
0, 5729
0, 5713
0, 5969
0, 5649
0, 2240
0, 5473
0, 5985
0, 5905
0, 6017
0, 5953
0, 6177
0, 5825
0, 6049
0, 5713
0, 5969
0, 2640
0, 5601
0, 5841
0, 5969
0, 5761
0, 5841
0, 5745
0, 5985
0, 5953
0, 5649
0, 5777
0, 2480
0, 5505
0, 5777
0, 5761
0, 5841
0, 5969
0, 5825
0, 5921
0, 5905
0, 5953
0, 5905
0, 2176
0, 5649
0, 5713
0, 5777
0, 5761
0, 5713
0, 5249
0, 5745
0, 5809
0, 5825
0, 6113
0, 2480
0, 5617
0, 5665
0, 5809
0, 5953
0, 5761
0, 5825
0, 5889
0, 5649
0, 5489
0, 5777
0, 2320
0, 5569
0, 5889
0, 5953
0, 5793
0, 5665
0, 5905
0, 5921
0, 5601
0, 5393
0, 5937
0, 2528
0, 5601
0, 5665
0, 5777
0, 5921
0, 5633
0, 5985
0, 5953
0, 5649
0, 5793
0, 6065
0, 2176
0, 5745
0, 5681
0, 5921
0, 5633
0, 5841
0, 5937
0, 5473
0, 5921
0, 6001
0, 5521
0, 2256
0, 5553
0, 5985
0, 5985
0, 5825
0, 5969
0, 5873
0, 5537
0, 5825
0, 5761
0, 6033
0, 2496
0, 5713
0, 5745
0, 5777
0, 5633
0, 6017
0, 5569
0, 5377
0, 5777
0, 5777
0, 6017
0, 2256
0, 5937
0, 5905
0, 5681
0, 5825
0, 5809
0, 5745
0, 5761
0, 5841
0, 5665
0, 5569
0, 2464
0, 5553
0, 5777
0, 5841
0, 5937
0, 6001
0, 5793
0, 5985
0, 5761
0, 5665
0, 5921
0, 2368
0, 5313
0, 5713
0, 5841
0, 5809
0, 5425
0, 6913
0, 6065
0, 5617
0, 5713
0, 5505
0, 2208
0, 5729
0, 5569
0, 5857
0, 5969
0, 5777
0, 5729
0, 5841
0, 5681
0, 5825
0, 5793
0, 2704
0, 5569
0, 5921
0, 5953
0, 5761
0, 5777
0, 5937
0, 5585
0, 5841
0, 5873
0, 5697
0, 2240
0, 5697
0, 5345
0, 5569
0, 6097
0, 6257
0, 6017
0, 5921
0, 5985
0, 5873
0, 5697
0, 2448
0, 5697
0, 5569
0, 5745
0, 5761
0, 5921
0, 5985
0, 5937
0, 5617
0, 5729
0, 5553
0, 2880
0, 5585
0, 5873
0, 6321
0, 5809
0, 5889
0, 5937
0, 5777
0, 5921
0, 5809
0, 5777
0, 2160
0, 5857
0, 6049
0, 5473
0, 5665
0, 5937
0, 5745
0, 5873
0, 5905
0, 5841
0, 6337
0, 2080
0, 5649
0, 5857
0, 5489
0, 5377
0, 5665
0, 5809
0, 5665
0, 5585
0, 5697
0, 5793
0, 2208
0, 5441
0, 5697
0, 5537
0, 5633
0, 5441
0, 5729
0, 5921
0, 5825
0, 5617
0, 5857
0, 1824
0, 5665
0, 6065
0, 6257
0, 6225
0, 5473
0, 5761
0, 5841
0, 5665
0, 5649
0, 5633
0, 2064
0, 5793
0, 5585
0, 5841
0, 5857
0, 5585
0, 5889
0, 5905
0, 5745
0, 5825
0, 5553
0, 2208
0, 5633
0, 5889
0, 6049
0, 5713
0, 5905
0, 5809
0, 5425
0, 5713
0, 5761
0, 5585
0, 1856
0, 5633
0, 5665
0, 5889
0, 5713
0, 5505
0, 5697
0, 5665
0, 5729
0, 5729
0, 5761
0, 2384
0, 5761
0, 6225
0, 6017
0, 5809
0, 5937
0, 5185
0, 5713
0, 5697
0, 5697
0, 5761
0, 2368
0, 5537
0, 5841
0, 5617
0, 5537
0, 5537
0, 5617
0, 6001
0, 5777
0, 5489
0, 6001
0, 2240
0, 5265
0, 5809
0, 5697
0, 5953
0, 6001
0, 6097
0, 6001
0, 5473
0, 5425
0, 5361
0, 2224
0, 5521
0, 5761
0, 5521
0, 6049
0, 5649
0, 5553
0, 5985
0, 5681
0, 5857
0, 5441
0, 1968
0, 5617
0, 5681
0, 5745
0, 5777
0, 5665
0, 5889
0, 6017
0, 5809
0, 5617
0, 5457
0, 2176
0, 5505
0, 5649
0, 6017
0, 6257
0, 5969
0, 5953
0, 5521
0, 5681
0, 5889
0, 5377
0, 2176
0, 5489
0, 5585
0, 5873
0, 5793
0, 5777
0, 6193
0, 5809
0, 5681
0, 5793
0, 5601
0, 2064
0, 5457
0, 5713
0, 5681
0, 5681
0, 5873
0, 5921
0, 5681
0, 5649
0, 5649
0, 5857
0, 2080
0, 5441
0, 5601
0, 5713
0, 5905
0, 5905
0, 5697
0, 5793
0, 5857
0, 5569
0, 5489
0, 2368
0, 5457
0, 5585
0, 5585
0, 5601
0, 5969
0, 5713
0, 5681
0, 5905
0, 5569
0, 5729
0, 1472
0, 5521
0, 5633
0, 5745
0, 6017
0, 6145
0, 5521
0, 5665
0, 5745
0, 5809
0, 5793
0, 1664
0, 5505
0, 5953
0, 5649
0, 5633
0, 5569
0, 5905
0, 5649
0, 6001
0, 6225
0, 6001
0, 1616
0, 5713
0, 5441
0, 5633
0, 5905
0, 5585
0, 5761
0, 5713
0, 5121
0, 5665
0, 5441
0, 2144
0, 5745
0, 5409
0, 5761
0, 5649
0, 5569
0, 5777
0, 5409
0, 5569
0, 5761
0, 5409
0, 1808
0, 5585
0, 5361
0, 5713
0, 5457
0, 5713
0, 5681
0, 5473
0, 5649
0, 5649
0, 5361
0, 1760
0, 5457
0, 5457
0, 5585
0, 5601
0, 5905
0, 5841
0, 5457
0, 5713
0, 5713
0, 5745
0, 2160
0, 5505
0, 5505
0, 5857
0, 5105
0, 5841
0, 5761
0, 5729
0, 5793
0, 5505
0, 5537
0, 1408
0, 5473
0, 5745
0, 5649
0, 5457
0, 5697
0, 5361
0, 5281
0, 5473
0, 5393
0, 5617
0, 1632
0, 5201
0, 5921
0, 5505
0, 5553
0, 5553
0, 5473
0, 5441
0, 5473
0, 5825
0, 5713
0, 1408
0, 5249
0, 5553
0, 5569
0, 5441
0, 5281
0, 5441
0, 5633
0, 5409
0, 5633
0, 5873
0, 1648
0, 5185
0, 5345
0, 5825
0, 5633
0, 5457
0, 5633
0, 5569
0, 5553
0, 5601
0, 5569
0, 1904
0, 5153
0, 5649
0, 5793
0, 5601
0, 5617
0, 5793
0, 5713
0, 5665
0, 5601
0, 5521
0, 1632
0, 4977
0, 5665
0, 5649
0, 5649
0, 5905
0, 5873
0, 5681
0, 5681
0, 5649
0, 5873
0, 1792
0, 5665
0, 5617
0, 5473
0, 5537
0, 5745
0, 5665
0, 5585
0, 5681
0, 5633
0, 5809
0, 2432
0, 5601
0, 5841
0, 5793
0, 5553
0, 5841
0, 5521
0, 5681
0, 5649
0, 5553
0, 5745
0, 2432
0, 5457
0, 5729
0, 5585
0, 5825
0, 5793
0, 5761
0, 6113
0, 5937
0, 5665
0, 5713
0, 2080
0, 5233
0, 5585
0, 5601
0, 5729
0, 5745
0, 5777
0, 5809
0, 5537
0, 5969
0, 5649
0, 1984
0, 5521
0, 5777
0, 5633
0, 5633
0, 5617
0, 5761
0, 5937
0, 5633
0, 5681
0, 6113
0, 1936
0, 5473
0, 5617
0, 5681
0, 5745
0, 5713
0, 5777
0, 5889
0, 5633
0, 5857
0, 5713
0, 2048
0, 5505
0, 5713
0, 5777
0, 5761
0, 5633
0, 5809
0, 5713
0, 5713
0, 5921
0, 5665
0, 2192
0, 5553
0, 5553
0, 5729
0, 5569
0, 5761
0, 5921
0, 5409
0, 5793
0, 5873
0, 5713
0, 1872
0, 5681
0, 5665
0, 5761
0, 5665
0, 5665
0, 5985
0, 5761
0, 5713
0, 5697
0, 5873
0, 2048
0, 5473
0, 5745
0, 5777
0, 5617
0, 5569
0, 5601
0, 5809
0, 5841
0, 5681
0, 5697
0, 1792
0, 5569
0, 5617
0, 5633
0, 5745
0, 5665
0, 5521
0, 5729
0, 5713
0, 5601
0, 5777
0, 1888
0, 5665
0, 5537
0, 5761
0, 5601
0, 5633
0, 5585
0, 5745
0, 5745
0, 5777
0, 5889
0, 2240
0, 5553
0, 5633
0, 5729
0, 5713
0, 5601
0, 5633
0, 5745
0, 5713
0, 5841
0, 5841
0, 2064
0, 5377
0, 5729
0, 5777
0, 5793
0, 5601
0, 5825
0, 5665
0, 5585
0, 5777
0, 5489
0, 2448
0, 5761
0, 5809
0, 5857
0, 5889
0, 5617
0, 5857
0, 5569
0, 5697
0, 5809
0, 5617
0, 2336
0, 5617
0, 5633
0, 5761
0, 5841
0, 5825
0, 5857
0, 5601
0, 5745
0, 5857
0, 5745
0, 2304
0, 5745
0, 5793
0, 5761
0, 5761
0, 5841
0, 5921
0, 5633
0, 5729
0, 5569
0, 5665
0, 2224
0, 5473
0, 5681
0, 5857
0, 5729
0, 5825
0, 5665
0, 5905
0, 5777
0, 5537
0, 5713
0, 2176
0, 5553
0, 5601
0, 5585
0, 5713
0, 5697
0, 5569
0, 5809
0, 5857
0, 5857
0, 5633
0, 1952
0, 5457
0, 5697
0, 5601
0, 5713
0, 5857
0, 5713
0, 5777
0, 5665
0, 5745
0, 5841
0, 1792
0, 5537
0, 5697
0, 5729
0, 5793
0, 5697
0, 5649
0, 5825
0, 5601
0, 5889
0, 5857
0, 2016
0, 5393
0, 5569
0, 5665
0, 5841
0, 5681
0, 5697
0, 5809
0, 5697
0, 5713
0, 5841
0, 1840
0, 5553
0, 5665
0, 5825
0, 5841
0, 5553
0, 5633
0, 5569
0, 5793
0, 5841
0, 5553
0, 2048
0, 5633
0, 5649
0, 5761
0, 5761
0, 5649
0, 5777
0, 5777
0, 5745
0, 5825
0, 5585
0, 2080
0, 5569
0, 5601
0, 5841
0, 5713
0, 5745
0, 5825
0, 5553
0, 5553
0, 5761
0, 5809
0, 1904
0, 5585
0, 5569
0, 5953
0, 5793
0, 5857
0, 5697
0, 5585
0, 5889
0, 5665
0, 5905
0, 2144
0, 5697
0, 5745
0, 5601
0, 5761
0, 5889
0, 5489
0, 5825
0, 5697
0, 5665
0, 5777
0, 1808
0, 5633
0, 5713
0, 5761
0, 5793
0, 5777
0, 5585
0, 5873
0, 5585
0, 5729
0, 5873
0, 1792
0, 5569
0, 5649
0, 5633
0, 5633
0, 6561
0, 6081
0, 6113
0, 5665
0, 5665
0, 5761
0, 1824
0, 5425
0, 5697
0, 5825
0, 5777
0, 5585
0, 5617
0, 5761
0, 5601
0, 5729
0, 5617
0, 1936
0, 5489
0, 5713
0, 5745
0, 5729
0, 5633
0, 5681
0, 5681
0, 5841
0, 5809
0, 5633
0, 1808
0, 5569
0, 5553
0, 5793
0, 5601
0, 5841
0, 5921
0, 5601
0, 5761
0, 5793
0, 5681
0, 1792
0, 5665
0, 5697
0, 5857
0, 5585
0, 5761
0, 5857
0, 5633
0, 5617
0, 5729
0, 5681
0, 2080
0, 5553
0, 5825
0, 5697
0, 5665
0, 5665
0, 5601
0, 5665
0, 5793
0, 5601
0, 5633
0, 2144
0, 5649
0, 5841
0, 5569
0, 5761
0, 5873
0, 5633
0, 5745
0, 5841
0, 5585
0, 5681
0, 1792
0, 5441
0, 5585
0, 5569
0, 5761
0, 5889
0, 5537
0, 5697
0, 5505
0, 5617
0, 5761
0, 1888
0, 5201
0, 5633
0, 5521
0, 5617
0, 5793
0, 5793
0, 5745
0, 5617
0, 5633
0, 6209
0, 1904
0, 5537
0, 5633
0, 5729
0, 5857
0, 5569
0, 5697
0, 5681
0, 5665
0, 5857
0, 5633
0, 1728
0, 5489
0, 5617
0, 5777
0, 5745
0, 5457
0, 5745
0, 5585
0, 5649
0, 5713
0, 5617
0, 1936
0, 5569
0, 5569
0, 5649
0, 5409
0, 5697
0, 5777
0, 5585
0, 5649
0, 5665
0, 5649
0, 1968
0, 5585
0, 5713
0, 5857
0, 5569
0, 5665
0, 5537
0, 5569
0, 6065
0, 5633
0, 5697
0, 2048
0, 5569
0, 5665
0, 5745
0, 5665
0, 5729
0, 5505
0, 5889
0, 5729
0, 5649
0, 5633
0, 2080
0, 5569
0, 5585
0, 5825
0, 5681
0, 5841
0, 5569
0, 5745
0, 5729
0, 5601
0, 5793
0, 1808
0, 5217
0, 5505
0, 5633
0, 5649
0, 5713
0, 5617
0, 5761
0, 5633
0, 5649
0, 5937
0, 1616
0, 5473
0, 5553
0, 5505
0, 5633
0, 5569
0, 5761
0, 5841
0, 5617
0, 5825
0, 5793
0, 1696
0, 5409
0, 5665
0, 5761
0, 5649
0, 5569
0, 5665
0, 5825
0, 5585
0, 5649
0, 5633
0, 1888
0, 5601
0, 5537
0, 5665
0, 5969
0, 5441
0, 5745
0, 5697
0, 5841
0, 5761
0, 5729
0, 1824
0, 5505
0, 5585
0, 5729
0, 5569
0, 5761
0, 5777
0, 5601
0, 5633
0, 5777
0, 5649
0, 1536
0, 5521
0, 5713
0, 5857
0, 5585
0, 5729
0, 5729
0, 5521
0, 5681
0, 5569
0, 5809
0, 1920
0, 5521
0, 5761
0, 5809
0, 5649
0, 5713
0, 5585
0, 5729
0, 5825
0, 5617
0, 5713
0, 1968
0, 5537
0, 5649
0, 5665
0, 5697
0, 5857
0, 5489
0, 5841
0, 5729
0, 5697
0, 5553
0, 1536
0, 5425
0, 5697
0, 5505
0, 5713
0, 5697
0, 5665
0, 5681
0, 5697
0, 5873
0, 5809
0, 1616
0, 5521
0, 5729
0, 5601
0, 5761
0, 5569
0, 5761
0, 5729
0, 5649
0, 5793
0, 5889
0, 1856
0, 5473
0, 5441
0, 5729
0, 5809
0, 5601
0, 5745
0, 5873
0, 5569
0, 5745
0, 5601
0, 1856
0, 5505
0, 5585
0, 5681
0, 5761
0, 5569
0, 5857
0, 5521
0, 5569
0, 5745
0, 5505
0, 2112
0, 5393
0, 5553
0, 5761
0, 5777
0, 5537
0, 5857
0, 5649
0, 5825
0, 5729
0, 5649
0, 1824
0, 5553
0, 5681
0, 5809
0, 5617
0, 5745
0, 5825
0, 5569
0, 5665
0, 5425
0, 5793
0, 2048
0, 5425
0, 5665
0, 5905
0, 5521
0, 5697
0, 5585
0, 5601
0, 5713
0, 5521
0, 5793
0, 2048
0, 5553
0, 5761
0, 5601
0, 5697
0, 5793
0, 5489
0, 5681
0, 5697
0, 5569
0, 5665
0, 1728
0, 5617
0, 5729
0, 5665
0, 5697
0, 5713
0, 5553
0, 5553
0, 5633
0, 5585
0, 5777
0, 1424
0, 5489
0, 5601
0, 5521
0, 5745
0, 5633
0, 5777
0, 5857
0, 5681
0, 5633
0, 5777
0, 1536
0, 5377
0, 5585
0, 5713
0, 5697
0, 5585
0, 5585
0, 5793
0, 5633
0, 5585
0, 5505
0, 2064
0, 5553
0, 5585
0, 5697
0, 5905
0, 5505
0, 5713
0, 5633
0, 5777
0, 5697
0, 5681
0, 1712
0, 5425
0, 5537
0, 5649
0, 5473
0, 5809
0, 5697
0, 5585
0, 5649
0, 5745
0, 5761
0, 1504
0, 5585
0, 5697
0, 5633
0, 5569
0, 5665
0, 5681
0, 5489
0, 5649
0, 5537
0, 5633
0, 1760
0, 5521
0, 5601
0, 5745
0, 5441
0, 5633
0, 5441
0, 5665
0, 5857
0, 5505
0, 5745
0, 1680
0, 5489
0, 5617
0, 5473
0, 5745
0, 5569
0, 5569
0, 5601
0, 5793
0, 5569
0, 5585
0, 1648
0, 5329
0, 5601
0, 5505
0, 5617
0, 6465
0, 5361
0, 5697
0, 5473
0, 5665
0, 5665
0, 1520
0, 5377
0, 5665
0, 5617
0, 5537
0, 5505
0, 5729
0, 5729
0, 5537
0, 5633
0, 5809
0, 1456
0, 5265
0, 5489
0, 5745
0, 5793
0, 5585
0, 5665
0, 5665
0, 5521
0, 5601
0, 5537
0, 1712
0, 5377
0, 5473
0, 5681
0, 5633
0, 5617
0, 5649
0, 5521
0, 5665
0, 5857
0, 5505
0, 1728
0, 5345
0, 5601
0, 5665
0, 5473
0, 5537
0, 5697
0, 5457
0, 5681
0, 5809
0, 5569
0, 1344
0, 5505
0, 5537
0, 5729
0, 5377
0, 5553
0, 5745
0, 5393
0, 5649
0, 5521
0, 5649
0, 1904
0, 5473
0, 5489
0, 5537
0, 5601
0, 5697
0, 5537
0, 5697
0, 5697
0, 5393
0, 5601
0, 1536
0, 5441
0, 5697
0, 5377
0, 5569
0, 5633
0, 5473
0, 5537
0, 5745
0, 5489
0, 5633
0, 1296
0, 5137
0, 5601
0, 5489
0, 5441
0, 5633
0, 5425
0, 5553
0, 5489
0, 5601
0, 5569
0, 1152
0, 5329
0, 5553
0, 5521
0, 5569
0, 5521
0, 5633
0, 5617
0, 5441
0, 5553
0, 5665
0, 1248
0, 5313
0, 5377
0, 5649
0, 5633
0, 5425
0, 5553
0, 5633
0, 5521
0, 5537
0, 5457
0, 1568
0, 5201
0, 5457
0, 5665
0, 5697
0, 5633
0, 5505
0, 5409
0, 5537
0, 5697
0, 5585
0, 1280
0, 5329
0, 5281
0, 5521
0, 5505
0, 5617
0, 5697
0, 5281
0, 5473
0, 5729
0, 5361
0, 1296
0, 5377
0, 5633
0, 5649
0, 5329
0, 5521
0, 5569
0, 5361
0, 5617
0, 5329
0, 5665
0, 1344
0, 5297
0, 5569
0, 5585
0, 5265
0, 5521
0, 5329
0, 5537
0, 5633
0, 5409
0, 5537
0, 1360
0, 5329
0, 5425
0, 5377
0, 5489
0, 5601
0, 5393
0, 5441
0, 5521
0, 5409
0, 5505
0, 1472
0, 5329
0, 5377
0, 5265
0, 5457
0, 5537
0, 5297
0, 5441
0, 5265
0, 5553
0, 5521
0, 1488
0, 4945
0, 5393
0, 5265
0, 5457
0, 5153
0, 5553
0, 5665
0, 5441
0, 5329
0, 5553
0, 864
0, 5121
0, 5233
0, 5601
0, 5281
0, 5025
0, 5345
0, 5601
0, 5457
0, 5409
0, 5201
0, 1216
0, 5313
0, 5361
0, 5265
0, 5473
0, 5265
0, 5473
0, 5233
0, 5441
0, 5409
0, 5025
0, 1264
0, 5265
0, 5153
0, 5457
0, 5041
0, 5377
0, 5633
0, 5201
0, 5393
0, 5521
0, 5009
0, 1280
0, 5313
0, 5345
0, 5377
0, 5217
0, 5409
0, 5409
0, 5393
0, 5249
0, 5121
0, 5409
0, 1360
0, 5297
0, 5153
0, 5505
0, 4993
0, 5281
0, 5153
0, 5473
0, 5137
0, 5297
0, 5265
0, 1200
0, 5057
0, 5281
0, 4961
0, 5393
0, 5601
0, 5041
0, 5249
0, 5361
0, 5265
0, 5409
0, 1088
0, 4705
0, 5233
0, 4705
0, 5185
0, 5441
0, 5153
0, 5073
0, 4689
0, 5345
0, 5537
0, 1136
0, 4753
0, 5345
0, 5201
0, 5569
0, 5089
0, 5425
0, 5057
0, 5185
0, 5073
0, 5313
0, 1104
0, 5073
0, 4785
0, 5233
0, 5457
0, 5105
0, 5473
0, 5249
0, 4801
0, 5169
0, 4961
0, 1312
0, 4625
0, 4689
0, 5153
0, 5393
0, 4993
0, 5441
0, 5121
0, 4625
0, 5137
0, 4737
0, 1312
0, 5041
0, 4945
0, 5009
0, 5201
0, 5489
0, 5121
0, 5041
0, 4849
0, 5361
0, 5057
0, 1408
0, 4321
0, 5009
0, 5361
0, 4785
0, 5377
0, 4945
0, 4705
0, 5153
0, 4977
0, 5409
0, 832
0, 4865
0, 4945
0, 5281
0, 4945
0, 5425
0, 4945
0, 5169
0, 5185
0, 4353
0, 5009
0, 1312
0, 4753
0, 5297
0, 5425
0, 5297
0, 4689
0, 4865
0, 5313
0, 4833
0, 5105
0, 5089
0, 816
0, 4561
0, 5073
0, 5009
0, 5249
0, 5121
0, 4353
0, 5057
0, 5345
0, 5153
0, 4705
0, 1088
0, 4993
0, 4817
0, 4337
0, 5073
0, 5297
0, 5185
0, 5073
0, 5073
0, 4561
0, 5169
0, 1072
0, 4897
1, 5329
1, 4097
1, 4625
1, 4689
1, 5233
1, 4609
1, 3920
1, 5025
1, 5233
1, 1344
1, 4225
1, 4080
1, 4977
1, 5345
1, 4561
1, 5185
1, 4497
1, 5089
1, 4193
1, 3680
1, 1232
1, 5153
1, 4769
1, 5265
1, 5121
1, 3552
1, 4705
1, 4369
1, 5057
1, 5105
1, 4593
1, 1440
1, 4225
1, 4833
1, 4577
1, 3904
1, 4689
1, 5233
1, 4801
1, 3792
1, 4737
1, 3152
1, 1024
1, 4177
1, 4193
1, 4977
1, 4305
1, 4993
1, 5249
1, 4897
1, 3904
1, 3536
1, 4673
1, 1536
1, 5009
1, 3696
1, 4737
1, 3840
1, 4737
1, 4609
1, 5025
1, 4289
1, 4737
1, 3584
1, 1232
1, 3888
1, 4769
1, 4833
1, 3552
1, 4673
1, 4000
1, 4945
1, 3840
1, 3280
1, 4529
1, 480
1, 4465
1, 4977
1, 2912
1, 4337
1, 5105
1, 4673
1, 3232
1, 4433
1, 4481
1, 4961
1, 0
1, 3584
1, 4673
1, 4385
1, 5073
1, 3584
1, 4737
1, 2928
1, 4369
1, 2432
1, 4097
1, 448
1, 4545
1, 5105
1, 3888
1, 3792
1, 4545
1, 4353
1, 4897
1, 3632
1, 4881
1, 3200
1, 480
1, 4129
1, 4865
1, 4641
1, 2544
1, 4113
1, 3552
1, 4577
1, 4849
1, 2416
1, 3984
1, 1712
1, 2400
1, 3712
1, 2720
1, 3904
1, 4401
1, 5153
1, 2976
1, 4913
1, 2720
1, 4000
1, 352
1, 3984
1, 4881
1, 4657
1, 2368
1, 3616
1, 4737
1, 5169
1, 4849
1, 2192
1, 3712
1, 880
1, 4225
1, 3920
1, 4929
1, 2496
1, 4625
1, 3232
1, 3776
1, 3504
1, 4625
1, 4865
1, 512
1, 4032
1, 4833
1, 3136
1, 4273
1, 3456
1, 4433
1, 5105
1, 4929
1, 2880
1, 3232
1, 1248
1, 4545
1, 4641
1, 5249
1, 2928
1, 3872
1, 4737
1, 4833
1, 3344
1, 4016
1, 4097
1, 2656
1, 3360
1, 4945
1, 2944
1, 3200
1, 4209
1, 5089
1, 4433
1, 4961
1, 2832
1, 3040
1, 1664
1, 4753
1, 5297
1, 3600
1, 3776
1, 4865
1, 5281
1, 5009
1, 3104
1, 3056
1, 4097
1, 2768
1, 4673
1, 5153
1, 2864
1, 4577
1, 5009
1, 4913
1, 3088
1, 4449
1, 4257
1, 5073
1, 800
1, 3248
1, 3920
1, 3536
1, 4465
1, 5185
1, 4609
1, 5009
1, 3664
1, 3536
1, 4513
1, 4145
1, 4881
1, 2704
1, 3376
1, 3904
1, 4817
1, 5217
1, 3408
1, 4225
1, 4961
1, 2752
1, 4577
1, 5073
1, 3168
1, 4993
1, 3168
1, 3536
1, 4321
1, 5137
1, 4801
1, 3280
1, 4305
1, 4369
1, 4721
1, 4689
1, 5201
1, 3648
1, 3136
1, 4289
1, 4977
1, 4769
1, 3360
1, 3216
1, 3840
1, 4785
1, 4433
1, 5121
1, 3440
1, 3552
1, 4369
1, 2736
1, 3952
1, 4673
1, 4385
1, 6017
1, 3344
1, 4465
1, 5105
1, 4721
1, 3456
1, 3744
1, 5681
1, 3584
1, 4401
1, 4064
1, 5553
1, 3728
1, 4609
1, 5249
1, 4721
1, 5201
1, 3392
1, 3840
1, 4785
1, 4497
1, 5201
1, 4032
1, 4080
1, 4289
1, 5041
1, 4737
1, 3776
1, 3536
1, 4305
1, 5089
1, 5089
1, 3584
1, 4881
1, 4945
1, 5345
1, 4481
1, 5073
1, 3568
1, 4961
1, 3520
1, 4032
1, 3088
1, 4209
1, 7489
1, 3232
1, 3840
1, 3952
1, 5025
1, 3600
1, 3104
1, 3920
1, 4673
1, 5025
1, 3600
1, 6209
1, 4577
1, 5153
1, 4673
1, 3440
1, 2720
1, 3744
1, 4529
1, 4705
1, 3472
1, 4000
1, 6785
1, 4993
1, 4000
1, 4705
1, 5409
1, 4289
1, 5089
1, 3232
1, 5089
1, 3504
1, 3232
1, 6609
1, 4849
1, 4881
1, 2864
1, 3808
1, 3440
1, 4273
1, 4353
1, 5121
1, 3472
1, 3264
1, 6657
1, 4881
1, 4097
1, 4865
1, 4705
1, 5025
1, 3680
1, 3744
1, 4545
1, 5281
1, 4929
1, 6849
1, 4273
1, 4689
1, 5201
1, 4097
1, 4849
1, 3152
1, 4433
1, 5217
1, 3152
1, 3872
1, 7489
1, 4881
1, 5233
1, 3472
1, 4817
1, 3376
1, 5329
1, 3536
1, 4369
1, 3776
1, 4113
1, 8065
1, 5249
1, 5345
1, 3504
1, 3904
1, 4625
1, 4689
1, 5313
1, 3568
1, 3488
1, 4225
1, 8930
1, 4577
1, 5153
1, 3984
1, 4977
1, 4032
1, 4481
1, 5041
1, 5105
1, 3872
1, 4289
1, 9538
1, 5249
1, 3120
1, 5297
1, 3680
1, 4048
1, 4481
1, 5233
1, 4353
1, 5153
1, 3344
1, 10626
1, 5633
1, 3856
1, 4385
1, 5121
1, 5121
1, 3392
1, 3904
1, 4097
1, 4961
1, 4177
1, 10674
1, 3552
1, 5057
1, 3472
1, 3520
1, 4385
1, 4689
1, 5153
1, 3520
1, 3904
1, 4769
1, 11106
1, 4161
1, 4497
1, 5121
1, 3968
1, 4625
1, 5361
1, 4513
1, 5073
1, 5249
1, 4080
1, 9154
1, 4993
1, 5425
1, 3664
1, 3744
1, 4641
1, 4753
1, 5313
1, 3808
1, 4273
1, 4129
1, 10194
1, 5121
1, 5457
1, 5313
1, 4385
1, 4273
1, 4048
1, 4865
1, 4849
1, 5329
1, 4225
1, 11282
1, 5217
1, 5473
1, 5153
1, 3936
1, 5281
1, 4129
1, 4849
1, 4577
1, 4721
1, 5377
1, 12563
1, 3968
1, 4433
1, 4673
1, 5377
1, 4113
1, 4241
1, 4241
1, 4897
1, 5281
1, 5089
1, 11362
1, 4513
1, 5153
1, 4353
1, 4385
1, 5265
1, 3840
1, 4289
1, 4561
1, 5217
1, 5169
1, 11282
1, 5249
1, 5201
1, 5569
1, 4369
1, 5153
1, 4577
1, 5329
1, 4449
1, 4161
1, 4689
1, 11874
1, 5793
1, 4417
1, 4353
1, 4753
1, 5297
1, 4593
1, 5121
1, 4209
1, 4817
1, 5537
1, 13539
1, 5905
1, 4785
1, 4305
1, 4785
1, 5313
1, 4353
1, 4689
1, 4321
1, 5153
1, 5601
1, 14035
1, 4737
1, 5249
1, 4481
1, 4881
1, 4497
1, 4833
1, 5457
1, 5009
1, 4177
1, 4209
1, 13123
1, 5825
1, 4097
1, 4113
1, 4561
1, 5137
1, 5281
1, 4673
1, 5297
1, 4257
1, 5185
1, 12547
1, 5009
1, 4945
1, 5441
1, 4097
1, 4097
1, 6257
1, 5217
1, 3744
1, 4129
1, 4929
1, 13443
1, 5777
1, 5873
1, 5329
1, 4337
1, 4865
1, 4881
1, 5393
1, 4385
1, 3776
1, 4849
1, 16243
1, 5041
1, 5153
1, 4865
1, 5617
1, 4417
1, 3760
1, 4465
1, 4417
1, 4641
1, 5169
1, 14963
1, 5793
1, 4321
1, 4449
1, 5201
1, 5249
1, 4817
1, 4881
1, 4737
1, 5521
1, 5345
1, 14003
1, 5201
1, 4321
1, 4545
1, 5377
1, 4961
1, 5393
1, 4177
1, 5969
1, 5825
1, 3808
1, 14483
1, 5313
1, 5585
1, 5569
1, 5393
1, 4337
1, 4993
1, 4337
1, 4673
1, 4433
1, 4577
1, 14627
1, 5617
1, 5745
1, 4737
1, 4721
1, 4897
1, 4225
1, 4609
1, 5009
1, 4705
1, 5297
1, 13459
1, 4849
1, 4545
1, 4097
1, 4785
1, 5265
1, 5233
1, 4353
1, 4609
1, 5089
1, 5537
1, 16388
1, 5249
1, 5505
1, 5089
1, 5409
1, 3968
1, 4545
1, 5009
1, 4385
1, 4849
1, 5409
1, 16868
1, 5953
1, 5217
1, 4545
1, 4897
1, 4433
1, 5121
1, 4353
1, 4625
1, 5217
1, 4769
1, 17620
1, 4769
1, 5505
1, 4161
1, 5425
1, 4337
1, 4913
1, 4641
1, 4977
1, 5537
1, 5169
1, 15683
1, 5633
1, 5553
1, 5873
1, 5169
1, 5601
1, 5217
1, 4225
1, 4817
1, 4097
1, 4689
1, 16868
1, 5777
1, 5761
1, 5425
1, 4193
1, 4705
1, 4769
1, 5345
1, 4321
1, 4625
1, 4433
1, 17956
1, 5633
1, 5601
1, 4353
1, 5009
1, 5185
1, 5681
1, 4241
1, 4545
1, 4657
1, 5393
1, 18052
1, 5137
1, 4785
1, 5281
1, 4593
1, 5153
1, 5553
1, 4449
1, 4401
1, 5121
1, 4769
1, 19540
1, 5169
1, 4353
1, 5041
1, 5409
1, 4337
1, 4625
1, 4545
1, 5153
1, 5505
1, 5393
1, 18612
1, 6513
1, 4625
1, 4897
1, 4417
1, 5121
1, 5553
1, 5425
1, 4769
1, 4305
1, 5265
1, 17444
1, 5809
1, 5665
1, 5345
1, 4321
1, 4753
1, 5345
1, 5617
1, 4497
1, 4529
1, 4833
1, 20885
1, 6385
1, 4785
1, 4865
1, 5009
1, 5601
1, 5521
1, 4481
1, 4097
1, 4737
1, 5393
1, 21221
1, 6561
1, 5345
1, 4497
1, 4545
1, 4465
1, 5041
1, 5617
1, 5329
1, 4705
1, 4977
1, 21093
1, 6385
1, 4897
1, 4849
1, 5041
1, 4625
1, 5185
1, 4689
1, 5265
1, 5553
1, 5505
1, 20485
1, 5873
1, 5313
1, 5569
1, 4449
1, 4417
1, 5393
1, 5537
1, 4913
1, 4257
1, 4689
1, 20789
1, 5937
1, 5841
1, 5921
1, 5153
1, 5649
1, 4785
1, 4961
1, 5697
1, 4609
1, 4753
1, 21157
1, 6657
1, 5345
1, 4737
1, 5265
1, 5617
1, 4993
1, 5473
1, 5041
1, 5441
1, 5905
1, 23349
1, 5345
1, 5665
1, 4545
1, 5073
1, 5553
1, 4689
1, 4737
1, 5121
1, 5281
1, 5793
1, 22453
1, 6273
1, 5505
1, 5265
1, 5025
1, 5281
1, 5217
1, 5521
1, 5009
1, 4961
1, 5409
1, 21973
1, 5601
1, 4721
1, 5137
1, 4961
1, 5601
1, 5169
1, 4865
1, 4817
1, 5345
1, 5057
1, 23733
1, 5985
1, 5729
1, 5793
1, 5393
1, 4353
1, 4737
1, 5153
1, 5377
1, 5041
1, 5601
1, 22357
1, 6753
1, 5297
1, 5073
1, 5345
1, 5649
1, 5633
1, 4929
1, 5201
1, 5665
1, 4913
1, 24854
1, 6913
1, 5457
1, 5681
1, 4769
1, 4753
1, 5217
1, 5409
1, 4849
1, 5441
1, 5841
1, 24758
1, 6033
1, 5553
1, 5185
1, 4817
1, 5217
1, 5745
1, 5121
1, 4881
1, 5329
1, 5569
1, 25494
1, 6129
1, 4881
1, 5329
1, 5329
1, 4961
1, 5217
1, 5185
1, 5697
1, 5089
1, 5041
1, 24726
1, 6769
1, 5057
1, 5329
1, 4721
1, 5489
1, 5857
1, 5393
1, 5841
1, 5137
1, 5041
1, 24854
1, 6769
1, 5633
1, 5265
1, 5457
1, 5697
1, 5105
1, 5457
1, 5873
1, 5697
1, 4977
1, 25526
1, 6097
1, 5825
1, 5169
1, 5553
1, 5505
1, 4833
1, 5025
1, 5313
1, 5745
1, 5217
1, 25798
1, 6401
1, 4881
1, 5505
1, 5665
1, 4993
1, 5649
1, 5121
1, 5489
1, 4897
1, 4817
1, 26198
1, 6753
1, 5505
1, 4865
1, 5217
1, 5153
1, 5457
1, 4801
1, 5281
1, 5777
1, 5217
1, 27462
1, 6689
1, 5377
1, 5729
1, 4833
1, 5201
1, 5745
1, 5489
1, 4929
1, 5121
1, 5761
1, 25590
1, 6257
1, 6033
1, 5969
1, 5457
1, 4833
1, 4641
1, 5121
1, 5409
1, 4865
1, 5441
1, 27030
1, 6673
1, 6401
1, 4769
1, 5009
1, 5441
1, 5585
1, 4929
1, 5057
1, 5521
1, 5041
1, 28679
1, 5825
1, 5745
1, 4993
1, 5217
1, 4929
1, 5281
1, 5809
1, 5057
1, 5697
1, 4737
1, 28070
1, 6673
1, 4801
1, 5537
1, 5473
1, 4993
1, 5745
1, 5441
1, 5697
1, 5025
1, 4465
1, 27782
1, 6545
1, 4737
1, 5425
1, 5169
1, 5793
1, 5025
1, 4977
1, 5265
1, 5841
1, 4817
1, 27974
1, 7233
1, 5761
1, 5633
1, 4529
1, 5297
1, 5137
1, 5761
1, 5057
1, 4769
1, 5169
1, 28198
1, 7153
1, 5585
1, 5201
1, 5329
1, 5873
1, 5713
1, 4769
1, 4993
1, 5137
1, 5441
1, 29655
1, 7009
1, 5537
1, 5617
1, 4945
1, 5249
1, 5617
1, 4849
1, 4529
1, 4993
1, 5521
1, 29511
1, 6241
1, 5345
1, 5905
1, 4993
1, 5633
1, 4545
1, 5185
1, 5057
1, 5393
1, 5297
1, 29959
1, 6193
1, 5137
1, 5649
1, 5809
1, 5121
1, 5185
1, 5217
1, 5841
1, 4897
1, 4897
1, 29351
1, 6721
1, 6401
1, 5281
1, 5905
1, 5201
1, 5169
1, 5489
1, 5841
1, 5825
1, 5073
1, 29463
1, 6657
1, 6449
1, 5825
1, 5249
1, 5281
1, 5793
1, 5233
1, 5361
1, 5201
1, 5505
1, 31271
1, 7025
1, 5857
1, 5105
1, 5169
1, 5697
1, 5745
1, 5089
1, 5201
1, 5825
1, 4913
1, 32343
1, 6721
1, 5201
1, 5633
1, 6033
1, 5649
1, 4881
1, 5297
1, 5137
1, 5601
1, 5793
1, 31287
1, 6817
1, 5505
1, 5889
1, 5409
1, 5329
1, 5409
1, 5473
1, 6033
1, 5345
1, 5649
1, 30951
1, 6833
1, 6273
1, 6209
1, 5409
1, 5553
1, 5793
1, 5489
1, 5425
1, 5857
1, 5441
1, 31207
1, 6177
1, 6097
1, 5889
1, 5425
1, 5537
1, 5521
1, 5041
1, 5201
1, 5265
1, 5617
1, 31751
1, 7425
1, 5713
1, 5185
1, 5457
1, 5745
1, 5457
1, 5905
1, 5537
1, 5265
1, 5489
1, 32295
1, 6977
1, 6593
1, 5585
1, 5313
1, 5361
1, 5761
1, 5761
1, 5537
1, 6017
1, 5265
1, 33432
1, 6689
1, 5009
1, 5377
1, 5601
1, 5729
1, 5265
1, 5169
1, 5489
1, 5921
1, 5681
1, 32663
1, 7009
1, 5569
1, 5073
1, 5697
1, 5425
1, 5505
1, 5185
1, 5569
1, 6129
1, 5265
1, 34056
1, 6657
1, 6225
1, 6193
1, 5601
1, 5281
1, 4705
1, 5393
1, 5713
1, 4961
1, 5633
1, 33528
1, 7057
1, 6033
1, 5169
1, 5121
1, 5617
1, 5313
1, 5825
1, 5569
1, 4673
1, 5121
1, 34760
1, 6721
1, 6257
1, 4945
1, 5633
1, 5121
1, 5777
1, 5041
1, 4785
1, 5537
1, 5697
1, 34024
1, 7297
1, 4993
1, 4961
1, 5473
1, 5473
1, 5153
1, 5569
1, 4929
1, 5441
1, 4785
1, 34088
1, 7105
1, 5265
1, 5889
1, 4865
1, 5473
1, 5649
1, 5745
1, 4913
1, 5217
1, 4977
1, 34664
1, 7441
1, 5953
1, 5809
1, 4977
1, 5521
1, 5937
1, 4881
1, 5473
1, 5297
1, 5825
1, 33400
1, 7409
1, 5937
1, 5137
1, 5249
1, 5745
1, 5457
1, 5921
1, 5201
1, 4577
1, 5297
1, 35528
1, 6817
1, 6497
1, 5585
1, 5249
1, 5489
1, 4929
1, 5281
1, 5329
1, 5889
1, 4913
1, 36744
1, 6641
1, 5105
1, 5233
1, 5441
1, 5137
1, 5745
1, 4913
1, 5873
1, 5889
1, 5537
1, 36104
1, 7617
1, 5137
1, 5441
1, 5601
1, 5441
1, 6017
1, 5857
1, 5185
1, 5457
1, 5153
1, 35496
1, 7121
1, 6817
1, 5441
1, 5297
1, 5201
1, 5889
1, 5345
1, 5857
1, 5249
1, 5361
1, 35720
1, 7057
1, 5985
1, 6337
1, 5489
1, 6065
1, 5633
1, 6081
1, 5105
1, 5265
1, 5697
1, 36600
1, 7025
1, 6305
1, 5793
1, 6097
1, 4881
1, 5297
1, 5345
1, 5729
1, 5889
1, 6145
1, 37833
1, 7745
1, 6113
1, 5249
1, 5569
1, 5921
1, 6145
1, 5505
1, 5681
1, 5361
1, 5905
1, 38009
1, 6753
1, 5777
1, 5553
1, 5873
1, 5457
1, 5889
1, 6161
1, 5713
1, 5745
1, 5825
1, 37881
1, 6833
1, 5681
1, 5681
1, 5809
1, 6257
1, 5569
1, 5969
1, 6161
1, 5505
1, 5793
1, 37465
1, 7537
1, 6977
1, 6113
1, 6081
1, 5633
1, 5713
1, 6577
1, 5777
1, 5985
1, 5745
1, 37529
1, 7617
1, 6961
1, 6225
1, 5457
1, 5857
1, 5825
1, 5873
1, 6161
1, 6113
1, 5857
1, 38921
1, 7569
1, 6865
1, 6161
1, 5745
1, 6129
1, 6209
1, 5665
1, 6049
1, 5793
1, 6049
1, 39097
1, 7681
1, 5777
1, 5921
1, 5921
1, 6033
1, 6177
1, 5681
1, 5633
1, 6065
1, 5793
1, 38953
1, 7313
1, 5745
1, 5857
1, 6145
1, 5745
1, 5761
1, 6273
1, 5777
1, 5825
1, 5841
1, 39129
1, 8033
1, 6593
1, 6481
1, 5985
1, 6081
1, 6161
1, 6193
1, 5841
1, 5697
1, 6049
1, 39017
1, 7953
1, 7153
1, 5841
1, 6161
1, 6257
1, 6129
1, 6273
1, 5793
1, 5825
1, 5985
1, 40057
1, 7825
1, 6673
1, 5985
1, 6257
1, 6273
1, 6177
1, 6353
1, 6417
1, 6193
1, 5937
1, 40297
1, 7729
1, 6529
1, 5857
1, 6209
1, 6257
1, 6145
1, 6401
1, 6433
1, 5953
1, 6369
1, 39785
1, 8065
1, 6545
1, 5841
1, 6049
1, 6353
1, 6273
1, 6449
1, 6385
1, 6225
1, 5841
1, 39881
1, 7825
1, 7169
1, 6609
1, 6257
1, 6417
1, 6129
1, 6145
1, 6481
1, 6673
1, 6145
1, 39801
1, 8097
1, 7233
1, 6817
1, 6193
1, 6369
1, 6321
1, 6481
1, 5905
1, 6353
1, 6449
1, 40025
1, 8386
1, 7297
1, 6241
1, 6257
1, 6465
1, 6657
1, 6497
1, 6513
1, 6561
1, 6449
1, 40729
1, 8081
1, 7249
1, 6721
1, 6545
1, 6529
1, 6705
1, 6177
1, 6513
1, 6705
1, 6081
1, 41162
1, 8354
1, 6545
1, 6593
1, 5953
1, 6609
1, 6529
1, 6689
1, 6673
1, 6353
1, 6353
1, 41178
1, 8129
1, 6641
1, 6897
1, 6561
1, 6641
1, 6369
1, 6481
1, 6577
1, 6193
1, 6577
1, 41290
1, 8594
1, 7473
1, 6913
1, 6785
1, 6673
1, 6641
1, 6833
1, 6641
1, 6529
1, 6753
1, 40873
1, 8706
1, 7505
1, 6241
1, 6833
1, 6625
1, 6465
1, 6753
1, 6625
1, 6545
1, 6385
1, 41274
1, 8242
1, 7729
1, 6625
1, 6817
1, 6673
1, 6753
1, 6273
1, 6625
1, 6737
1, 6657
1, 41130
1, 8706
1, 6609
1, 6769
1, 6673
1, 6625
1, 6689
1, 6641
1, 6193
1, 6433
1, 6849
1, 41514
1, 8674
1, 6577
1, 6785
1, 6721
1, 6801
1, 6897
1, 7153
1, 7185
1, 6769
1, 7057
1, 41546
1, 8466
1, 7697
1, 7377
1, 6785
1, 6993
1, 6849
1, 6753
1, 6705
1, 6705
1, 6865
1, 41562
1, 8722
1, 7425
1, 6625
1, 6753
1, 6817
1, 6737
1, 6625
1, 6641
1, 6641
1, 6785
1, 41594
1, 8578
1, 7473
1, 6945
1, 7057
1, 6929
1, 6817
1, 6737
1, 6657
1, 7025
1, 6881
1, 41738
1, 8562
1, 6753
1, 6785
1, 6833
1, 6625
1, 6833
1, 6769
1, 6721
1, 6897
1, 6945
1, 41770
1, 8690
1, 6945
1, 6737
1, 6721
1, 7009
1, 7009
1, 6593
1, 6561
1, 6593
1, 6577
1, 41978
1, 8658
1, 7761
1, 7377
1, 6657
1, 6945
1, 6737
1, 6609
1, 6513
1, 6801
1, 7041
1, 41898
1, 8882
1, 7329
1, 6993
1, 6753
1, 6929
1, 6817
1, 6961
1, 7041
1, 7009
1, 7185
1, 41386
1, 8546
1, 7617
1, 7041
1, 7009
1, 8065
1, 6593
1, 6929
1, 6529
1, 6961
1, 7137
1, 41418
1, 8514
1, 7329
1, 6945
1, 6769
1, 6593
1, 6849
1, 6945
1, 6753
1, 7009
1, 6881
1, 41370
1, 8530
1, 6945
1, 7153
1, 7345
1, 6993
1, 6785
1, 6449
1, 6641
1, 6529
1, 6849
1, 41626
1, 8658
1, 6913
1, 7217
1, 6769
1, 6961
1, 7009
1, 7233
1, 7361
1, 7313
1, 6801
1, 41626
1, 8754
1, 7761
1, 7601
1, 6737
1, 6737
1, 7073
1, 6977
1, 7073
1, 6977
1, 6897
1, 42106
1, 8738
1, 7585
1, 7457
1, 7409
1, 7169
1, 6945
1, 6993
1, 6993
1, 7025
1, 6945
1, 41770
1, 8434
1, 7713
1, 7185
1, 6881
1, 6865
1, 7393
1, 6721
1, 7073
1, 7073
1, 6977
1, 42010
1, 8802
1, 6977
1, 6945
1, 6881
1, 6929
1, 7009
1, 7121
1, 6817
1, 7361
1, 6865
1, 42058
1, 8706
1, 7153
1, 7473
1, 6721
1, 7041
1, 6833
1, 6897
1, 7057
1, 7041
1, 6993
1, 41882
1, 8514
1, 8001
1, 7569
1, 7281
1, 7009
1, 7009
1, 7041
1, 7169
1, 6497
1, 6881
1, 42122
1, 8674
1, 8033
1, 7073
1, 6977
1, 7009
1, 6977
1, 7073
1, 7217
1, 6881
1, 6641
1, 42186
1, 8962
1, 8145
1, 6721
1, 6817
1, 7153
1, 7009
1, 7057
1, 6689
1, 6689
1, 7137
1, 42170
1, 8658
1, 6897
1, 7313
1, 6993
1, 6689
1, 6929
1, 6753
1, 7009
1, 6977
1, 6897
1, 41946
1, 8770
1, 7201
1, 7073
1, 6721
1, 6865
1, 6657
1, 7201
1, 7041
1, 7089
1, 6833
1, 42074
1, 8898
1, 8065
1, 7393
1, 6929
1, 6993
1, 7137
1, 7105
1, 7297
1, 7009
1, 7169
1, 41994
1, 8914
1, 8001
1, 7585
1, 7377
1, 7281
1, 6929
1, 7009
1, 7105
1, 7041
1, 7185
1, 41802
1, 8818
1, 7921
1, 6897
1, 6945
1, 6993
1, 7169
1, 7169
1, 7057
1, 7089
1, 7217
1, 41882
1, 8722
1, 8113
1, 7185
1, 7393
1, 7009
1, 6913
1, 7073
1, 6737
1, 7009
1, 7201
1, 41562
1, 8674
1, 6977
1, 7057
1, 7073
1, 7025
1, 7553
1, 7105
1, 7345
1, 7105
1, 6929
1, 42506
1, 8674
1, 6881
1, 6929
1, 7089
1, 6993
1, 6945
1, 7089
1, 7105
1, 7137
1, 6993
1, 42378
1, 9170
1, 7857
1, 7601
1, 7025
1, 7409
1, 7105
1, 7009
1, 7425
1, 7233
1, 6945
1, 42442
1, 9218
1, 7969
1, 7089
1, 7233
1, 7217
1, 7153
1, 7393
1, 7073
1, 7121
1, 7105
1, 41898
1, 8866
1, 8065
1, 7329
1, 7105
1, 6993
1, 7201
1, 7137
1, 7105
1, 7297
1, 7377
1, 42218
1, 9202
1, 7073
1, 7297
1, 7249
1, 6881
1, 7169
1, 7089
1, 7089
1, 6705
1, 6993
1, 41978
1, 8786
1, 6913
1, 7105
1, 7233
1, 7393
1, 7233
1, 7249
1, 7457
1, 7169
1, 7201
1, 42426
1, 8722
1, 8242
1, 7729
1, 7473
1, 7409
1, 7201
1, 7025
1, 7313
1, 7121
1, 7265
1, 42410
1, 9186
1, 8161
1, 7169
1, 7521
1, 7377
1, 6913
1, 7089
1, 7473
1, 6993
1, 7185
1, 42090
1, 9026
1, 8017
1, 7297
1, 7329
1, 7073
1, 6721
1, 6929
1, 7361
1, 7265
1, 7425
1, 42026
1, 8866
1, 7121
1, 7169
1, 7409
1, 7169
1, 7441
1, 7905
1, 7089
1, 7137
1, 7409
1, 42122
1, 9026
1, 7201
1, 7265
1, 7441
1, 7425
1, 7249
1, 6993
1, 7361
1, 7441
1, 7217
1, 42218
1, 9026
1, 8081
1, 7633
1, 7281
1, 7217
1, 7009
1, 7329
1, 7265
1, 7217
1, 7313
1, 41914
1, 9394
1, 8129
1, 8017
1, 7425
1, 7617
1, 7329
1, 7233
1, 7297
1, 7393
1, 7601
1, 42218
1, 8866
1, 8097
1, 7153
1, 7281
1, 7425
1, 7217
1, 7393
1, 6977
1, 7105
1, 7297
1, 42218
1, 9010
1, 8097
1, 7217
1, 7569
1, 6817
1, 6833
1, 7009
1, 7425
1, 7489
1, 7313
1, 42314
1, 8978
1, 7521
1, 7265
1, 7137
1, 7137
1, 7281
1, 7569
1, 7409
1, 7409
1, 7329
1, 42362
1, 8946
1, 7345
1, 7441
1, 7281
1, 7329
1, 7313
1, 6881
1, 7409
1, 7185
1, 7233
1, 42442
1, 9298
1, 7905
1, 7793
1, 7345
1, 7553
1, 7201
1, 7393
1, 7313
1, 7297
1, 7169
1, 42602
1, 9138
1, 7937
1, 7361
1, 7505
1, 7441
1, 7601
1, 7521
1, 7713
1, 7377
1, 7169
1, 42458
1, 9266
1, 8161
1, 7825
1, 7873
1, 7441
1, 7393
1, 7281
1, 7553
1, 7281
1, 7425
1, 42474
1, 9186
1, 7585
1, 7265
1, 7521
1, 7361
1, 7217
1, 7409
1, 7185
1, 7249
1, 6993
1, 42554
1, 9346
1, 6913
1, 7217
1, 7089
1, 7393
1, 7489
1, 7153
1, 7489
1, 7761
1, 7281
1, 42762
1, 9330
1, 8194
1, 7937
1, 7217
1, 7249
1, 7297
1, 6977
1, 7265
1, 7377
1, 7393
1, 42410
1, 8962
1, 8049
1, 7313
1, 7377
1, 7409
1, 7505
1, 7857
1, 7745
1, 7249
1, 7665
1, 41978
1, 8866
1, 7457
1, 7313
1, 7313
1, 7041
1, 7537
1, 7409
1, 7489
1, 7169
1, 7441
1, 42746
1, 8930
1, 7233
1, 7361
1, 7553
1, 7569
1, 7137
1, 7761
1, 7265
1, 7617
1, 7345
1, 42442
1, 9074
1, 7393
1, 7553
1, 7489
1, 7233
1, 7393
1, 7409
1, 7457
1, 7505
1, 7249
1, 42730
1, 9122
1, 8530
1, 8113
1, 7073
1, 7073
1, 7281
1, 7297
1, 7409
1, 7521
1, 7297
1, 42362
1, 8850
1, 8001
1, 7889
1, 7633
1, 7617
1, 6817
1, 7089
1, 7201
1, 7441
1, 7409
1, 42522
1, 9106
1, 8177
1, 7329
1, 7473
1, 6977
1, 7057
1, 7217
1, 7409
1, 7473
1, 7505
1, 42282
1, 9330
1, 8322
1, 7329
1, 7489
1, 7153
1, 7665
1, 7505
1, 7345
1, 7377
1, 7057
1, 42490
1, 9106
1, 7201
1, 7521
1, 7489
1, 7441
1, 7777
1, 7393
1, 7425
1, 7377
1, 7601
1, 42634
1, 9538
1, 7345
1, 7521
1, 7377
1, 7537
1, 7377
1, 7121
1, 7281
1, 7329
1, 7313
1, 42602
1, 9282
1, 8434
1, 7777
1, 7361
1, 7617
1, 7313
1, 7377
1, 7521
1, 6913
1, 7457
1, 42746
1, 8994
1, 8161
1, 7489
1, 7665
1, 7569
1, 7089
1, 7265
1, 7825
1, 7025
1, 7489
1, 42458
1, 9026
1, 8081
1, 7441
1, 7425
1, 7249
1, 7345
1, 7297
1, 7537
1, 7521
1, 7745
1, 42394
1, 9362
1, 7265
1, 7345
1, 8610
1, 7041
1, 7169
1, 7297
1, 7377
1, 7409
1, 6913
1, 42426
1, 9170
1, 7441
1, 7505
1, 7201
1, 7137
1, 7393
1, 7137
1, 7377
1, 7553
1, 7121
1, 42618
1, 8914
1, 8017
1, 7873
1, 7345
1, 7569
1, 7601
1, 7377
1, 7617
1, 7201
1, 7473
1, 42410
1, 8626
1, 8033
1, 7137
1, 7201
1, 7313
1, 7201
1, 7153
1, 7505
1, 7393
1, 7281
1, 42250
1, 8850
1, 8194
1, 6993
1, 7249
1, 7441
1, 7185
1, 7233
1, 7233
1, 7041
1, 7377
1, 42314
1, 9234
1, 7313
1, 7281
1, 7345
1, 7617
1, 7569
1, 7409
1, 7345
1, 7137
1, 7313
1, 42314
1, 9138
1, 7249
1, 7329
1, 7585
1, 7761
1, 7633
1, 7329
1, 7521
1, 7553
1, 7233
1, 42234
1, 8834
1, 7841
1, 7265
1, 6929
1, 7009
1, 6881
1, 7137
1, 6993
1, 7233
1, 7137
1, 42634
1, 8866
1, 7953
1, 7777
1, 7441
1, 7393
1, 6881
1, 7313
1, 7361
1, 7457
1, 7729
1, 42330
1, 8930
1, 8194
1, 7345
1, 7233
1, 7633
1, 7425
1, 7393
1, 7489
1, 7329
1, 7169
1, 42746
1, 8914
1, 8049
1, 7393
1, 7681
1, 7201
1, 7361
1, 7425
1, 7457
1, 7265
1, 7729
1, 42138
1, 9410
1, 7617
1, 7649
1, 7169
1, 7745
1, 7521
1, 7649
1, 7377
1, 7217
1, 7265
1, 42826
1, 8802
1, 7985
1, 7537
1, 7601
1, 7345
1, 7393
1, 7585
1, 7617
1, 7457
1, 7425
1, 42490
1, 9042
1, 7905
1, 7217
1, 7585
1, 7537
1, 7761
1, 7729
1, 7601
1, 7473
1, 7425
1, 42522
1, 9394
1, 8386
1, 7377
1, 7505
1, 7457
1, 7841
1, 7633
1, 7537
1, 7473
1, 7473
1, 42442
1, 9138
1, 8418
1, 7265
1, 7665
1, 7921
1, 7953
1, 7745
1, 7297
1, 7585
1, 7441
1, 42874
1, 9314
1, 7809
1, 7793
1, 7681
1, 7825
1, 7793
1, 7281
1, 7633
1, 7409
1, 7265
1, 42842
1, 9554
1, 7457
1, 7649
1, 7889
1, 7681
1, 7825
1, 7409
1, 7505
1, 7969
1, 7585
1, 42746
1, 9202
1, 8514
1, 7985
1, 7377
1, 7585
1, 7425
1, 7393
1, 7697
1, 7361
1, 7521
1, 42650
1, 9602
1, 8450
1, 7233
1, 7553
1, 7681
1, 7441
1, 7329
1, 7633
1, 7425
1, 7649
1, 42394
1, 9426
1, 8242
1, 7217
1, 7489
1, 7713
1, 7569
1, 7745
1, 7601
1, 7665
1, 7649
1, 42426
1, 9634
1, 7425
1, 7793
1, 7633
1, 7249
1, 7569
1, 7953
1, 7473
1, 7505
1, 7713
1, 42938
1, 9186
1, 7569
1, 7745
1, 7585
1, 7393
1, 7617
1, 7681
1, 7825
1, 7649
1, 7249
1, 42618
1, 8978
1, 8161
1, 8161
1, 7569
1, 7425
1, 7809
1, 7249
1, 7793
1, 7473
1, 7329
1, 43082
1, 9106
1, 8258
1, 8065
1, 7745
1, 7713
1, 7729
1, 7617
1, 7521
1, 7729
1, 7633
1, 42970
1, 8994
1, 8194
1, 7441
1, 7489
1, 7281
1, 7441
1, 7313
1, 7473
1, 7185
1, 7505
1, 42650
1, 9154
1, 8386
1, 7249
1, 7537
1, 7361
1, 7425
1, 7537
1, 7553
1, 7969
1, 7809
1, 42490
1, 9106
1, 7297
1, 7665
1, 7809
1, 7201
1, 7393
1, 7153
1, 7681
1, 7585
1, 7377
1, 42554
1, 9234
1, 7297
1, 7473
1, 7617
1, 7953
1, 7681
1, 7169
1, 7249
1, 7729
1, 7281
1, 42714
1, 8850
1, 8033
1, 8049
1, 7441
1, 7569
1, 7361
1, 7377
1, 7905
1, 7329
1, 7521
1, 42746
1, 9058
1, 8450
1, 7473
1, 7441
1, 7649
1, 7425
1, 7537
1, 7233
1, 7409
1, 7489
1, 42522
1, 9010
1, 8194
1, 7297
1, 7473
1, 7921
1, 7777
1, 7649
1, 7505
1, 7473
1, 7585
1, 42010
1, 9138
1, 7345
1, 7505
1, 7505
1, 7409
1, 7537
1, 7873
1, 7281
1, 7249
1, 7425
1, 42298
1, 9090
1, 7329
1, 7441
1, 7297
1, 7489
1, 7281
1, 7777
1, 7953
1, 7601
1, 7329
1, 42378
1, 8914
1, 8129
1, 7713
1, 7329
1, 7617
1, 7585
1, 7281
1, 7809
1, 7393
1, 7681
1, 42602
1, 8818
1, 8129
1, 7457
1, 7569
1, 7617
1, 7393
1, 7649
1, 7537
1, 7457
1, 7553
1, 42826
1, 8914
1, 8306
1, 7649
1, 7857
1, 7601
1, 7457
1, 7761
1, 7377
1, 7361
1, 7697
1, 42698
1, 9074
1, 7361
1, 7793
1, 7457
1, 7665
1, 7745
1, 7489
1, 7553
1, 7585
1, 7537
1, 42570
1, 9138
1, 7601
1, 7473
1, 7473
1, 7441
1, 7569
1, 7409
1, 7425
1, 7569
1, 7441
1, 42810
1, 8994
1, 8113
1, 7857
1, 6929
1, 7553
1, 7393
1, 7521
1, 7633
1, 7825
1, 7585
1, 42730
1, 8834
1, 8145
1, 7921
1, 7649
1, 7825
1, 7105
1, 7585
1, 7569
1, 7521
1, 7473
1, 42602
1, 8834
1, 8258
1, 7633
1, 7601
1, 7489
1, 7697
1, 7457
1, 7793
1, 7649
1, 7521
1, 42458
1, 9410
1, 8177
1, 7617
1, 7729
1, 7249
1, 7073
1, 7569
1, 7713
1, 7649
1, 7489
1, 42522
1, 9218
1, 7393
1, 7681
1, 7873
1, 7697
1, 7665
1, 7601
1, 7649
1, 7745
1, 7505
1, 42538
1, 9362
1, 7649
1, 7681
1, 7665
1, 7729
1, 7585
1, 7377
1, 7681
1, 7553
1, 7585
1, 42778
1, 8898
1, 8290
1, 8129
1, 7585
1, 7617
1, 7521
1, 7425
1, 7649
1, 7713
1, 7537
1, 42202
1, 8802
1, 8482
1, 7665
1, 7857
1, 7809
1, 7537
1, 7617
1, 7953
1, 7729
1, 7457
1, 41898
1, 9362
1, 8290
1, 7521
1, 7553
1, 7697
1, 7857
1, 7745
1, 7553
1, 7745
1, 7649
1, 42106
1, 9170
1, 7585
1, 7841
1, 8081
1, 7601
1, 7569
1, 7681
1, 7537
1, 7665
1, 7297
1, 42586
1, 9474
1, 7537
1, 7697
1, 7889
1, 7553
1, 7633
1, 7345
1, 7505
1, 7745
1, 7681
1, 42106
1, 9058
1, 8290
1, 7473
1, 7521
1, 7649
1, 7265
1, 7473
1, 7905
1, 7489
1, 7937
1, 42218
1, 9138
1, 8210
1, 7857
1, 7697
1, 7841
1, 7601
1, 7665
1, 7649
1, 7681
1, 8450
1, 41514
1, 9586
1, 8418
1, 7553
1, 8097
1, 7713
1, 7521
1, 7681
1, 7713
1, 7585
1, 8017
1, 52140
1, 9106
1, 7665
1, 7441
1, 7825
1, 7905
1, 7761
1, 7761
1, 7585
1, 7809
1, 7649
1, 41642
1, 9122
1, 7633
1, 7921
1, 7937
1, 7633
1, 7633
1, 7633
1, 7873
1, 7553
1, 7457
1, 42042
1, 8946
1, 8578
1, 8033
1, 7969
1, 7745
1, 7633
1, 7665
1, 7697
1, 7553
1, 7793
1, 42314
1, 9090
1, 8258
1, 8065
1, 7873
1, 7601
1, 7585
1, 7681
1, 7825
1, 7649
1, 7761
1, 42282
1, 9218
1, 8242
1, 7713
1, 7857
1, 7681
1, 7825
1, 7777
1, 7649
1, 7825
1, 7825
1, 40649
1, 9426
1, 8097
1, 7761
1, 7777
1, 7585
1, 7585
1, 7489
1, 7825
1, 7857
1, 7761
1, 41002
1, 9378
1, 7873
1, 7857
1, 7761
1, 7633
1, 7681
1, 7601
1, 7713
1, 7825
1, 7713
1, 40681
1, 9186
1, 7841
1, 7633
1, 7793
1, 7681
1, 7969
1, 7713
1, 7921
1, 7873
1, 7697
1, 40905
1, 9186
1, 8065
1, 7569
1, 7201
1, 7553
1, 7681
1, 7649
1, 7745
1, 7585
1, 7793
1, 41418
1, 8882
1, 8145
1, 7473
1, 7745
1, 7873
1, 7793
1, 7713
1, 7761
1, 7697
1, 7345
1, 40329
1, 9554
1, 8802
1, 7585
1, 7729
1, 7665
1, 7809
1, 7889
1, 7745
