1, 5585
1, 5585
1, 5537
1, 5601
1, 5617
1, 5601
1, 5617
1, 5585
1, 5601
1, 5585
1, 5553
1, 5569
1, 5665
1, 5553
1, 5569
1, 5553
1, 5569
1, 5553
1, 5537
1, 5537
1, 5505
1, 5537
1, 5537
1, 5537
1, 5505
1, 5505
1, 5505
1, 5521
1, 5537
1, 5569
1, 5633
1, 5633
1, 5649
1, 5649
1, 5633
1, 5665
1, 5745
1, 5825
1, 5857
1, 5857
1, 5905
1, 5921
1, 5953
1, 5937
1, 5937
1, 5921
1, 5921
1, 5921
1, 6049
1, 6049
1, 6241
1, 6353
1, 6449
1, 6481
1, 6593
1, 6625
1, 6625
1, 6593
1, 6593
1, 6625
1, 6673
1, 6769
1, 6737
1, 6881
1, 7057
1, 7009
1, 7073
1, 7073
1, 7073
1, 7041
1, 7089
1, 7137
1, 7137
1, 7185
1, 7153
1, 7265
1, 7233
1, 7233
1, 7345
1, 7393
1, 7441
1, 7441
1, 7457
1, 7457
1, 7441
1, 7393
1, 7377
1, 7425
1, 7473
1, 7569
1, 7905
1, 8017
1, 8210
1, 8258
1, 8258
1, 8274
1, 8482
1, 8546
1, 8706
1, 8946
1, 8914
1, 8882
1, 8834
1, 8834
1, 8834
1, 8898
1, 8850
1, 8818
1, 8770
1, 8738
1, 8674
1, 8642
1, 8578
1, 8530
1, 8450
1, 8450
1, 8386
1, 8354
1, 8290
1, 8210
1, 8161
1, 8113
1, 8113
1, 8113
1, 8097
1, 8081
1, 8033
1, 8033
1, 8017
1, 7969
1, 7985
1, 7953
1, 7905
1, 7873
1, 7889
1, 8049
1, 8145
1, 8113
1, 8065
1, 8049
1, 7985
1, 7969
1, 7937
1, 7905
1, 7873
1, 7841
1, 7809
1, 7777
1, 7745
1, 7697
1, 7697
1, 7681
1, 7649
1, 7585
1, 7553
1, 7521
1, 7473
1, 7441
1, 7441
1, 7393
1, 7361
1, 7313
1, 7265
1, 7249
1, 7217
1, 7217
1, 7185
1, 7137
1, 7089
1, 7105
1, 7057
1, 7089
1, 7025
1, 7009
1, 6961
1, 6929
1, 6913
1, 6881
1, 6833
1, 6817
1, 6801
1, 6753
1, 6721
1, 6689
1, 6673
1, 6641
1, 6625
1, 6593
1, 6561
1, 6545
1, 6513
1, 6481
1, 6465
1, 6465
1, 6401
1, 6433
1, 6433
1, 6401
1, 6401
1, 6353
1, 6369
1, 6401
1, 6385
1, 6417
1, 6433
1, 6401
1, 6401
1, 6465
1, 6449
1, 6497
1, 6673
1, 6673
1, 6609
1, 6609
1, 6593
1, 6561
1, 6561
1, 6497
1, 6481
1, 6449
1, 6433
1, 6417
1, 6369
1, 6353
1, 6337
1, 6321
1, 6257
1, 6273
1, 6225
1, 6193
1, 6161
1, 6145
1, 6129
1, 6145
1, 6145
1, 6145
1, 6113
1, 6097
1, 6129
1, 6113
1, 6113
1, 6081
1, 6113
1, 6081
1, 6033
1, 6017
1, 6033
1, 6017
1, 5985
1, 5985
1, 5969
1, 5921
1, 5921
1, 5937
1, 5921
1, 5953
1, 5921
1, 5937
1, 5889
1, 5905
1, 5857
1, 5825
1, 5841
1, 5825
1, 5825
1, 5809
1, 5777
1, 5745
1, 5729
1, 5713
1, 5697
1, 5665
1, 5665
1, 5617
1, 5601
1, 5617
1, 5633
1, 5601
1, 5585
1, 5601
1, 5585
1, 5553
1, 5553
1, 5537
1, 5505
1, 5521
1, 5521
1, 5489
1, 5489
1, 5505
1, 5569
1, 5601
1, 5569
1, 5569
1, 5601
1, 5633
1, 5649
1, 5649
1, 5665
1, 5681
1, 5665
1, 5665
1, 5649
1, 5649
1, 5649
1, 5633
1, 5601
1, 5649
1, 5713
1, 5713
1, 5745
1, 5713
1, 5745
1, 5665
1, 5681
1, 5681
1, 5665
1, 5617
1, 5633
1, 5601
1, 5585
1, 5601
1, 5617
1, 5601
1, 5601
1, 5601
1, 5617
1, 5585
1, 5569
1, 5649
1, 5713
1, 5745
1, 5745
1, 5793
1, 5777
1, 5761
1, 5793
1, 5745
1, 5713
1, 5729
1, 5697
1, 5761
1, 5841
1, 5841
1, 5905
1, 5953
1, 5953
1, 5889
1, 5873
1, 5905
1, 5873
1, 5873
1, 5873
1, 5889
1, 5873
1, 5841
1, 5825
1, 5777
1, 5761
1, 5777
1, 5777
1, 5809
1, 5889
1, 6017
1, 6017
1, 6001
1, 6113
1, 6225
1, 6273
1, 6257
1, 6289
1, 6321
1, 6305
1, 6305
1, 6353
1, 6305
1, 6273
1, 6289
1, 6385
1, 6417
1, 6481
1, 6513
1, 6513
1, 6513
1, 6513
1, 6497
1, 6513
1, 6545
1, 6689
1, 6785
1, 6785
1, 6737
1, 6737
1, 6705
1, 6705
1, 6641
1, 6689
1, 6929
1, 7153
1, 7201
1, 7361
1, 7457
1, 7441
1, 7425
1, 7377
1, 7361
1, 7345
1, 7441
1, 7505
1, 7585
1, 7729
1, 7649
1, 7649
1, 7617
1, 7569
1, 7537
1, 7521
1, 7489
1, 7441
1, 7409
1, 7297
1, 7329
1, 7361
1, 7441
1, 7425
1, 7441
1, 7505
1, 7441
1, 7553
1, 7537
1, 7489
1, 7489
1, 7457
1, 7457
1, 7441
1, 7393
1, 7393
1, 7313
1, 7281
1, 7281
1, 7265
1, 7297
1, 7329
1, 7281
1, 7249
1, 7201
1, 7153
1, 7121
1, 7089
1, 7057
1, 7009
1, 7009
1, 7009
1, 7009
1, 6961
1, 6929
1, 6913
1, 6865
1, 6849
1, 6801
1, 6769
1, 6737
1, 6705
1, 6689
1, 6689
1, 6721
1, 6657
1, 6641
1, 6625
1, 6609
1, 6561
1, 6545
1, 6529
1, 6497
1, 6497
1, 6465
1, 6449
1, 6417
1, 6401
1, 6385
1, 6433
1, 6465
1, 6449
1, 6433
1, 6417
1, 6433
1, 6401
1, 6369
1, 6337
1, 6321
1, 6321
1, 6305
1, 6305
1, 6337
1, 6337
1, 6289
1, 6321
1, 6417
1, 6433
1, 6449
1, 6433
1, 6417
1, 6385
1, 6337
1, 6305
1, 6289
1, 6305
1, 6289
1, 6257
1, 6241
1, 6225
1, 6257
1, 6273
1, 6257
1, 6273
1, 6449
1, 6465
1, 6465
1, 6449
1, 6433
1, 6401
1, 6401
1, 6385
1, 6321
1, 6305
1, 6289
1, 6241
1, 6225
1, 6257
1, 6289
1, 6257
1, 6257
1, 6209
1, 6177
1, 6161
1, 6161
1, 6145
1, 6081
1, 6081
1, 6049
1, 6017
1, 5985
1, 5953
1, 5937
1, 5921
1, 5889
1, 5873
1, 5841
1, 5857
1, 5873
1, 5841
1, 5857
1, 5825
1, 5825
1, 5809
1, 5777
1, 5777
1, 5729
1, 5713
1, 5681
1, 5665
1, 5649
1, 5633
1, 5601
1, 5601
1, 5585
1, 5569
1, 5553
1, 5521
1, 5521
1, 5521
1, 5473
1, 5473
1, 5441
1, 5441
1, 5457
1, 5425
1, 5393
1, 5409
1, 5377
1, 5361
1, 5377
1, 5329
1, 5313
1, 5313
1, 5313
1, 5329
1, 5281
1, 5265
1, 5281
1, 5265
1, 5297
1, 5361
1, 5345
1, 5329
1, 5313
1, 5313
1, 5313
1, 5297
1, 5281
1, 5265
1, 5249
1, 5265
1, 5217
1, 5217
1, 5201
1, 5185
1, 5169
1, 5153
1, 5153
1, 5153
1, 5121
1, 5153
1, 5121
1, 5121
1, 5121
1, 5105
1, 5073
1, 5105
1, 5073
1, 5121
1, 5121
1, 5105
1, 5121
1, 5121
1, 5089
1, 5073
1, 5057
1, 5105
1, 5137
1, 5137
1, 5137
1, 5137
1, 5169
1, 5169
1, 5137
1, 5169
1, 5169
1, 5185
1, 5201
1, 5233
1, 5233
1, 5217
1, 5233
1, 5281
1, 5217
1, 5249
1, 5329
1, 5265
1, 5265
1, 5281
1, 5281
1, 5249
1, 5361
1, 5409
1, 5409
1, 5505
1, 5553
1, 5649
1, 5745
1, 5665
1, 5649
1, 5681
1, 5697
1, 5777
1, 5841
1, 5921
1, 5985
1, 5985
1, 5953
1, 5969
1, 5985
1, 5969
1, 5921
1, 5969
1, 5937
1, 5985
1, 5969
1, 5985
1, 6017
1, 6001
1, 6049
1, 6065
1, 6065
1, 6113
1, 6097
1, 6193
1, 6241
1, 6305
1, 6385
1, 6385
1, 6481
1, 6529
1, 6577
1, 6593
1, 6769
1, 7009
1, 7073
1, 7073
1, 7025
1, 7057
1, 7025
1, 7057
1, 7057
1, 7073
1, 7105
1, 7105
1, 7169
1, 7233
1, 7521
1, 7585
1, 7585
1, 7617
1, 7745
1, 7745
1, 7825
1, 7889
1, 7889
1, 8033
1, 8194
1, 8177
1, 8177
1, 8129
1, 8129
1, 8226
1, 8274
1, 8258
1, 8514
1, 8674
1, 9074
1, 9426
1, 9490
1, 9538
1, 9538
1, 9682
1, 9794
1, 9778
1, 9778
1, 9810
1, 9810
1, 9762
1, 9730
1, 9698
1, 9650
1, 9618
1, 9538
1, 9506
1, 9474
1, 9506
1, 9474
1, 9490
1, 9506
1, 9442
1, 9506
1, 9602
1, 9634
1, 9618
1, 9570
1, 9570
1, 9506
1, 9458
1, 9378
1, 9330
1, 9234
1, 9186
1, 9138
1, 9058
1, 9010
1, 8930
1, 8882
1, 8802
1, 8722
1, 8658
1, 8626
1, 8546
1, 8498
1, 8434
1, 8386
1, 8370
1, 8306
1, 8290
1, 8226
1, 8194
1, 8113
1, 8097
1, 8001
1, 7985
1, 7937
1, 7889
1, 7841
1, 7793
1, 7729
1, 7681
1, 7649
1, 7777
1, 7761
1, 7969
1, 7985
1, 7937
1, 7889
1, 7905
1, 7841
1, 7873
1, 7873
1, 7841
1, 7809
1, 7745
1, 7697
1, 7649
1, 7601
1, 7585
1, 7553
1, 7489
1, 7457
1, 7457
1, 7425
1, 7409
1, 7377
1, 7345
1, 7345
1, 7297
1, 7217
1, 7153
1, 7137
1, 7121
1, 7137
1, 7089
1, 7041
1, 6993
1, 6993
1, 7009
1, 7025
1, 6977
1, 6961
1, 6945
1, 6897
1, 6849
1, 6817
1, 6785
1, 6769
1, 6705
1, 6705
1, 6705
1, 6705
1, 6657
1, 6625
1, 6609
1, 6577
1, 6545
1, 6481
1, 6497
1, 6497
1, 6481
1, 6433
1, 6433
1, 6401
1, 6385
1, 6401
1, 6369
1, 6337
1, 6369
1, 6353
1, 6337
1, 6305
1, 6321
1, 6289
1, 6273
1, 6225
1, 6193
1, 6177
1, 6145
1, 6145
1, 6113
1, 6097
1, 6113
1, 6161
1, 6145
1, 6113
1, 6129
1, 6113
1, 6097
1, 6097
1, 6081
1, 6049
1, 6017
1, 5985
1, 5985
1, 5937
1, 5953
1, 5921
1, 5889
1, 5857
1, 5841
1, 5825
1, 5793
1, 5777
1, 5745
1, 5761
1, 5825
1, 5793
1, 5761
1, 5729
1, 5729
1, 5697
1, 5681
1, 5649
1, 5697
1, 5633
1, 5601
1, 5585
1, 5569
1, 5617
1, 5713
1, 5617
1, 5633
1, 5585
1, 5585
1, 5569
1, 5569
1, 5649
1, 5649
1, 5697
1, 5745
1, 5697
1, 5681
1, 5665
1, 5649
1, 5633
1, 5601
1, 5617
1, 5617
1, 5601
1, 5585
1, 5585
1, 5585
1, 5569
1, 5601
1, 5585
1, 5665
1, 5665
1, 5745
1, 5857
1, 5889
1, 5857
1, 5841
1, 5809
1, 5809
1, 5745
1, 5761
1, 5777
1, 5745
1, 5777
1, 5793
1, 5809
1, 5745
1, 5729
1, 5713
1, 5697
1, 5713
1, 5697
1, 5665
1, 5649
1, 5665
1, 5665
1, 5665
1, 5649
1, 5665
1, 5681
1, 5665
1, 5649
1, 5681
1, 5633
1, 5633
1, 5633
1, 5585
1, 5585
1, 5569
1, 5553
1, 5585
1, 5553
1, 5537
1, 5569
1, 5521
1, 5537
1, 5505
1, 5537
1, 5601
1, 5649
1, 5697
1, 5633
1, 5633
1, 5617
1, 5681
1, 5697
1, 5713
1, 5697
1, 5681
1, 5665
1, 5713
1, 5777
1, 5809
1, 5825
1, 5825
1, 5809
1, 5793
1, 5761
1, 5745
1, 5745
1, 5729
1, 5745
1, 5729
1, 5729
1, 5729
1, 5761
1, 5777
1, 5761
1, 5761
1, 5745
1, 5777
1, 5809
1, 5761
1, 5761
1, 5793
1, 5793
1, 5793
1, 5825
1, 5857
1, 5841
1, 5857
1, 5809
1, 5793
1, 5793
1, 5809
1, 5857
1, 5953
1, 6001
1, 6017
1, 6097
1, 6081
1, 6113
1, 6241
1, 6257
1, 6257
1, 6289
1, 6385
1, 6401
1, 6353
1, 6337
1, 6321
1, 6433
1, 6401
1, 6401
1, 6401
1, 6337
1, 6321
1, 6305
1, 6257
1, 6305
1, 6369
1, 6289
1, 6273
1, 6289
1, 6257
1, 6209
1, 6209
1, 6241
1, 6209
1, 6177
1, 6145
1, 6177
1, 6177
1, 6145
1, 6145
1, 6193
1, 6193
1, 6161
1, 6177
1, 6209
1, 6209
1, 6193
1, 6209
1, 6193
1, 6193
1, 6177
1, 6225
1, 6209
1, 6273
1, 6401
1, 6417
1, 6449
1, 6433
1, 6369
1, 6337
1, 6305
1, 6305
1, 6257
1, 6241
1, 6321
1, 6417
1, 6465
1, 6433
1, 6465
1, 6529
1, 6577
1, 6577
1, 6561
1, 6561
1, 6561
1, 6609
1, 6593
1, 6657
1, 6737
1, 6737
1, 6705
1, 6721
1, 6721
1, 6785
1, 6753
1, 6737
1, 6705
1, 6689
1, 6721
1, 6705
1, 6641
1, 6625
1, 6657
1, 6689
1, 6721
1, 6689
1, 6689
1, 6641
1, 6609
1, 6593
1, 6609
1, 6577
1, 6529
1, 6513
1, 6497
1, 6513
1, 6513
1, 6465
1, 6449
1, 6417
1, 6385
1, 6385
1, 6385
1, 6385
1, 6337
1, 6401
1, 6401
1, 6353
1, 6337
1, 6289
1, 6289
1, 6321
1, 6273
1, 6305
1, 6273
1, 6273
1, 6305
1, 6273
1, 6241
1, 6273
1, 6241
1, 6257
1, 6321
1, 6353
1, 6401
1, 6433
1, 6433
1, 6449
1, 6465
1, 6433
1, 6417
1, 6385
1, 6369
1, 6369
1, 6337
1, 6289
1, 6273
1, 6241
1, 6193
1, 6193
1, 6161
1, 6161
1, 6145
1, 6129
1, 6097
1, 6081
1, 6113
1, 6129
1, 6113
1, 6081
1, 6081
1, 6081
1, 6049
1, 6033
1, 6017
1, 6001
1, 5969
1, 5953
1, 5921
1, 5921
1, 5889
1, 5857
1, 5841
1, 5809
1, 5809
1, 5777
1, 5809
1, 5777
1, 5745
1, 5777
1, 5697
1, 5697
1, 5713
1, 5681
1, 5665
1, 5665
1, 5665
1, 5633
1, 5601
1, 5569
1, 5537
1, 5553
1, 5521
1, 5537
1, 5537
1, 5553
1, 5521
1, 5537
1, 5537
1, 5537
1, 5489
1, 5473
1, 5473
1, 5473
1, 5473
1, 5473
1, 5441
1, 5425
1, 5441
1, 5441
1, 5425
1, 5441
1, 5393
1, 5393
1, 5409
1, 5361
1, 5345
1, 5377
1, 5313
1, 5313
1, 5313
1, 5281
1, 5313
1, 5281
1, 5281
1, 5297
1, 5313
1, 5313
1, 5297
1, 5297
1, 5313
1, 5361
1, 5329
1, 5313
1, 5329
1, 5313
1, 5281
1, 5249
1, 5281
1, 5249
1, 5249
1, 5249
1, 5217
1, 5233
1, 5265
1, 5281
1, 5249
1, 5281
1, 5265
1, 5281
1, 5233
1, 5233
1, 5233
1, 5249
1, 5233
1, 5233
1, 5233
1, 5265
1, 5265
1, 5233
1, 5217
1, 5217
1, 5185
1, 5201
1, 5201
1, 5281
1, 5265
1, 5281
1, 5265
1, 5233
1, 5249
1, 5249
1, 5233
1, 5217
1, 5249
1, 5265
1, 5233
1, 5217
1, 5217
1, 5201
1, 5185
1, 5201
1, 5169
1, 5153
1, 5169
1, 5153
1, 5217
1, 5249
1, 5201
1, 5265
1, 5281
1, 5345
1, 5377
1, 5377
1, 5345
1, 5313
1, 5329
1, 5361
1, 5409
1, 5377
1, 5377
1, 5409
1, 5409
1, 5425
1, 5425
1, 5441
1, 5537
1, 5537
1, 5521
1, 5601
1, 5569
1, 5553
1, 5521
1, 5521
1, 5537
1, 5537
1, 5633
1, 5841
1, 5937
1, 6049
1, 6017
1, 6017
1, 6033
1, 6049
1, 6097
1, 6241
1, 6209
1, 6305
1, 6305
1, 6305
1, 6337
1, 6353
1, 6353
1, 6401
1, 6673
1, 6769
1, 6833
1, 6817
1, 6881
1, 6913
1, 6929
1, 6961
1, 7217
1, 7313
1, 7761
1, 8161
1, 8194
1, 8145
1, 8065
1, 8081
1, 8194
1, 8258
1, 8242
1, 8322
1, 8306
1, 8290
1, 8322
1, 8274
1, 8274
1, 8322
1, 8306
1, 8258
1, 8322
1, 8482
1, 8594
1, 8658
1, 8738
1, 8770
1, 8866
1, 9042
1, 9026
1, 8978
1, 8994
1, 9058
1, 9026
1, 9074
1, 9090
1, 9106
1, 9298
1, 9474
1, 9730
1, 9954
1, 9906
1, 9890
1, 9826
1, 9762
1, 9762
1, 9794
1, 9746
1, 9650
1, 9570
1, 9522
1, 9474
1, 9410
1, 9314
1, 9250
1, 9186
1, 9122
1, 9058
1, 8994
1, 8946
1, 8866
1, 8818
1, 8770
1, 8706
1, 8642
1, 8594
1, 8530
1, 8498
1, 8434
1, 8402
1, 8370
1, 8322
1, 8290
1, 8258
1, 8226
1, 8242
1, 8210
1, 8242
1, 8194
1, 8194
1, 8242
1, 8370
1, 8418
1, 8546
1, 8562
1, 8578
1, 8658
1, 8738
1, 8914
1, 8882
1, 8818
1, 8754
1, 8738
1, 8722
1, 8674
1, 8754
1, 8674
1, 8610
1, 8546
1, 8514
1, 8466
1, 8418
1, 8354
1, 8306
1, 8290
1, 8210
1, 8177
1, 8129
1, 8065
1, 8001
1, 8001
1, 7985
1, 7937
1, 7921
1, 7841
1, 7809
1, 7729
1, 7745
1, 7713
1, 7649
1, 7601
1, 7553
1, 7521
1, 7537
1, 7473
1, 7473
1, 7505
1, 7505
1, 7441
1, 7393
1, 7345
1, 7313
1, 7281
1, 7377
1, 7361
1, 7361
1, 7441
1, 7425
1, 7441
1, 7377
1, 7345
1, 7297
1, 7233
1, 7217
1, 7169
1, 7137
1, 7137
1, 7185
1, 7137
1, 7121
1, 7089
1, 7073
1, 6993
1, 6945
1, 6913
1, 6865
1, 6897
1, 6881
1, 6833
1, 6785
1, 6769
1, 6753
1, 6705
1, 6657
1, 6593
1, 6609
1, 6577
1, 6577
1, 6545
1, 6497
1, 6497
1, 6449
1, 6433
1, 6449
1, 6385
1, 6369
1, 6337
1, 6305
1, 6305
1, 6273
1, 6257
1, 6225
1, 6209
1, 6177
1, 6177
1, 6145
1, 6113
1, 6113
1, 6033
1, 6097
1, 6097
1, 6065
1, 6049
1, 6049
1, 6017
1, 6033
1, 6001
1, 5953
1, 5953
1, 5937
1, 5953
1, 5937
1, 5937
1, 5889
1, 5873
1, 5857
1, 5841
1, 5841
1, 5857
1, 5825
1, 5809
1, 5777
1, 5745
1, 5729
1, 5713
1, 5681
1, 5681
1, 5665
1, 5681
1, 5665
1, 5633
1, 5665
1, 5617
1, 5601
1, 5585
1, 5569
1, 5553
1, 5537
1, 5521
1, 5553
1, 5569
1, 5601
1, 5617
1, 5617
1, 5601
1, 5601
1, 5601
1, 5617
1, 5617
1, 5569
1, 5617
1, 5601
1, 5553
1, 5585
1, 5553
1, 5521
1, 5521
1, 5505
1, 5489
1, 5505
1, 5489
1, 5425
1, 5441
1, 5441
1, 5473
1, 5473
1, 5457
1, 5441
1, 5425
1, 5441
1, 5425
1, 5409
1, 5409
1, 5441
1, 5441
1, 5441
1, 5409
1, 5393
1, 5377
1, 5393
1, 5377
1, 5361
1, 5329
1, 5329
1, 5329
1, 5281
1, 5265
1, 5313
1, 5297
1, 5297
1, 5281
1, 5249
1, 5233
1, 5249
1, 5249
1, 5249
1, 5217
1, 5217
1, 5185
1, 5201
1, 5185
1, 5169
1, 5153
1, 5153
1, 5137
1, 5121
1, 5121
1, 5121
1, 5089
1, 5105
1, 5073
1, 5089
1, 5105
1, 5185
1, 5201
1, 5185
1, 5185
1, 5185
1, 5169
1, 5249
1, 5265
1, 5361
1, 5409
1, 5425
1, 5409
1, 5361
1, 5409
1, 5505
1, 5473
1, 5473
1, 5441
1, 5425
1, 5425
1, 5489
1, 5505
1, 5489
1, 5473
1, 5489
1, 5489
1, 5441
1, 5489
1, 5489
1, 5473
1, 5521
1, 5537
1, 5537
1, 5569
1, 5553
1, 5553
1, 5569
1, 5633
1, 5745
1, 5761
1, 5745
1, 5777
1, 5761
1, 5777
1, 5729
1, 5681
1, 5713
1, 5697
1, 5713
1, 5697
1, 5729
1, 5681
1, 5665
1, 5633
1, 5633
1, 5649
1, 5617
1, 5617
1, 5617
1, 5601
1, 5569
1, 5569
1, 5601
1, 5633
1, 5633
1, 5617
1, 5617
1, 5649
1, 5665
1, 5649
1, 5697
1, 5777
1, 5873
1, 5873
1, 5921
1, 5937
1, 6033
1, 6129
1, 6113
1, 6177
1, 6177
1, 6209
1, 6209
1, 6193
1, 6177
1, 6193
1, 6161
1, 6145
1, 6129
1, 6097
1, 6113
1, 6161
1, 6209
1, 6193
1, 6193
1, 6225
1, 6289
1, 6257
1, 6225
1, 6193
1, 6177
1, 6305
1, 6369
1, 6353
1, 6321
1, 6353
1, 6353
1, 6385
1, 6353
1, 6321
1, 6289
1, 6289
1, 6273
1, 6305
1, 6289
1, 6241
1, 6257
1, 6193
1, 6225
1, 6193
1, 6177
1, 6129
1, 6081
1, 6129
1, 6097
1, 6081
1, 6033
1, 6113
1, 6065
1, 6065
1, 6033
1, 6017
1, 6017
1, 5969
1, 5969
1, 5953
1, 5937
1, 5969
1, 5953
1, 5953
1, 5969
1, 5937
1, 6049
1, 6081
1, 6113
1, 6113
1, 6097
1, 6129
1, 6241
1, 6225
1, 6209
1, 6193
1, 6257
1, 6385
1, 6433
1, 6385
1, 6369
1, 6337
1, 6353
1, 6305
1, 6289
1, 6241
1, 6241
1, 6225
1, 6225
1, 6161
1, 6161
1, 6161
1, 6113
1, 6081
1, 6113
1, 6129
1, 6097
1, 6081
1, 6065
1, 6065
1, 6049
1, 6001
1, 5953
1, 5937
1, 5937
1, 5921
1, 5937
1, 5937
1, 5873
1, 5889
1, 5873
1, 5841
1, 5841
1, 5793
1, 5793
1, 5761
1, 5729
1, 5729
1, 5697
1, 5681
1, 5681
1, 5633
1, 5649
1, 5633
1, 5617
1, 5585
1, 5569
1, 5553
1, 5553
1, 5505
1, 5521
1, 5521
1, 5505
1, 5521
1, 5553
1, 5537
1, 5505
1, 5457
1, 5489
1, 5473
1, 5457
1, 5409
1, 5425
1, 5409
1, 5393
1, 5361
1, 5345
1, 5361
1, 5361
1, 5345
1, 5345
1, 5345
1, 5329
1, 5313
1, 5329
1, 5345
1, 5313
1, 5297
1, 5313
1, 5329
1, 5313
1, 5329
1, 5329
1, 5313
1, 5281
1, 5297
1, 5313
1, 5329
1, 5281
1, 5265
1, 5265
1, 5265
1, 5249
1, 5249
1, 5249
1, 5281
1, 5265
1, 5233
1, 5249
1, 5201
1, 5217
1, 5201
1, 5201
1, 5185
1, 5169
1, 5153
1, 5137
1, 5121
1, 5121
1, 5137
1, 5105
1, 5105
1, 5105
1, 5105
1, 5137
1, 5153
1, 5121
1, 5153
1, 5121
1, 5121
1, 5073
1, 5089
1, 5105
1, 5089
1, 5105
1, 5121
1, 5105
1, 5105
1, 5105
1, 5041
1, 5057
1, 5025
1, 5041
1, 5009
1, 5025
1, 5057
1, 5041
1, 5025
1, 5025
1, 5009
1, 5009
1, 5009
1, 4977
1, 5009
1, 5009
1, 5025
1, 4993
1, 5041
1, 5009
1, 5025
1, 5009
1, 5041
1, 5025
1, 4993
1, 5009
1, 4945
1, 4961
1, 4945
1, 4961
1, 4977
1, 5041
1, 5025
1, 5057
1, 5025
1, 5057
1, 5057
1, 5057
1, 5041
1, 5009
1, 4993
1, 4977
1, 4961
1, 4977
1, 5057
1, 5169
1, 5185
1, 5185
1, 5345
1, 5361
1, 5473
1, 5665
1, 5681
1, 5777
1, 5953
1, 5969
1, 5969
1, 6049
1, 6129
1, 6097
1, 6129
1, 6241
1, 6289
1, 6449
1, 6465
1, 6561
1, 6673
1, 6737
1, 6689
1, 6705
1, 6737
1, 6769
1, 6913
1, 7105
1, 7201
1, 7377
1, 7425
1, 7601
1, 7553
1, 7553
1, 7585
1, 7553
1, 7537
1, 7489
1, 7537
1, 7585
1, 7601
1, 7585
1, 7585
1, 7521
1, 7633
1, 7729
1, 7761
1, 7809
1, 7809
1, 8017
1, 8033
1, 8001
1, 7985
1, 7921
1, 7905
1, 8001
1, 8113
1, 8065
1, 8113
1, 8049
1, 8097
1, 8113
1, 8145
1, 8129
1, 8145
1, 8129
1, 8081
1, 8033
1, 7985
1, 7953
1, 8081
1, 8322
1, 8354
1, 8354
1, 8290
1, 8434
1, 8658
1, 8674
1, 8882
1, 9138
1, 9154
1, 9122
1, 9090
1, 8994
1, 8962
1, 8898
1, 8834
1, 8770
1, 8738
1, 8642
1, 8626
1, 8546
1, 8498
1, 8482
1, 8450
1, 8418
1, 8370
1, 8322
1, 8258
1, 8210
1, 8161
1, 8113
1, 8065
1, 8001
1, 8001
1, 7921
1, 7873
1, 7841
1, 7793
1, 7777
1, 7745
1, 7729
1, 7729
1, 7713
1, 7681
1, 7633
1, 7761
1, 7969
1, 7953
1, 7921
1, 7921
1, 7921
1, 8049
1, 8161
1, 8129
1, 8065
1, 8033
1, 8001
1, 7937
1, 7889
1, 7857
1, 7809
1, 7809
1, 7761
1, 7697
1, 7713
1, 7697
1, 7649
1, 7649
1, 7601
1, 7633
1, 7665
1, 7681
1, 7665
1, 7633
1, 7601
1, 7585
1, 7521
1, 7505
1, 7473
1, 7505
1, 7521
1, 7489
1, 7441
1, 7425
1, 7409
1, 7377
1, 7345
1, 7313
1, 7249
1, 7233
1, 7201
1, 7169
1, 7121
1, 7089
1, 7041
1, 7009
1, 6993
1, 6929
1, 6929
1, 6897
1, 6849
1, 6817
1, 6785
1, 6785
1, 6753
1, 6753
1, 6721
1, 6689
1, 6641
1, 6609
1, 6593
1, 6593
1, 6593
1, 6545
1, 6561
1, 6545
1, 6529
1, 6513
1, 6465
1, 6449
1, 6433
1, 6385
1, 6369
1, 6353
1, 6321
1, 6321
1, 6273
1, 6257
1, 6257
1, 6241
1, 6177
1, 6161
1, 6129
1, 6113
1, 6097
1, 6081
1, 6049
1, 6049
1, 6017
1, 5985
1, 5985
1, 5969
1, 5953
1, 5953
1, 5937
1, 5905
1, 5889
1, 5873
1, 5873
1, 5825
1, 5857
1, 5841
1, 5825
1, 5793
1, 5793
1, 5793
1, 5745
1, 5697
1, 5697
1, 5681
1, 5681
1, 5697
1, 5665
1, 5665
1, 5665
1, 5617
1, 5617
1, 5601
1, 5601
1, 5569
1, 5585
1, 5569
1, 5585
1, 5617
1, 5585
1, 5585
1, 5553
1, 5537
1, 5505
1, 5521
1, 5505
1, 5505
1, 5473
1, 5489
1, 5473
1, 5473
1, 5457
1, 5489
1, 5425
1, 5409
1, 5409
1, 5409
1, 5393
1, 5393
1, 5377
1, 5377
1, 5345
1, 5345
1, 5313
1, 5313
1, 5313
1, 5297
1, 5297
1, 5297
1, 5265
1, 5265
1, 5265
1, 5265
1, 5249
1, 5233
1, 5217
1, 5233
1, 5217
1, 5201
1, 5185
1, 5185
1, 5137
1, 5153
1, 5153
1, 5153
1, 5169
1, 5169
1, 5137
1, 5153
1, 5153
1, 5153
1, 5137
1, 5153
1, 5121
1, 5137
1, 5121
1, 5137
1, 5121
1, 5105
1, 5105
1, 5105
1, 5089
1, 5073
1, 5089
1, 5041
1, 5057
1, 5057
1, 5089
1, 5073
1, 5073
1, 5041
1, 5041
1, 5057
1, 5025
1, 5009
1, 5009
1, 5041
1, 5009
1, 4993
1, 4977
1, 4993
1, 4993
1, 4993
1, 4993
1, 4993
1, 4977
1, 4977
1, 4961
1, 4929
1, 4945
1, 4929
1, 4929
1, 4929
1, 4913
1, 4913
1, 4929
1, 4913
1, 4929
1, 4913
1, 4913
1, 4913
1, 4897
1, 4897
1, 4881
1, 4881
1, 4913
1, 4897
1, 4913
1, 4897
1, 4897
1, 4881
1, 4881
1, 4865
1, 4881
1, 4817
1, 4865
1, 4913
1, 4945
1, 4945
1, 4945
1, 4929
1, 4945
1, 4929
1, 4945
1, 4993
1, 5025
1, 5041
1, 5073
1, 5089
1, 5137
1, 5137
1, 5121
1, 5137
1, 5121
1, 5169
1, 5137
1, 5137
1, 5153
1, 5153
1, 5153
1, 5153
1, 5153
1, 5233
1, 5249
1, 5233
1, 5249
1, 5265
1, 5249
1, 5233
1, 5217
1, 5217
1, 5233
1, 5233
1, 5249
1, 5249
1, 5281
1, 5297
1, 5361
1, 5425
1, 5457
1, 5441
1, 5409
1, 5393
1, 5377
1, 5377
1, 5441
1, 5473
1, 5537
1, 5585
1, 5617
1, 5729
1, 5793
1, 5809
1, 5873
1, 5937
1, 5953
1, 5937
1, 5921
1, 5921
1, 5905
1, 5889
1, 5937
1, 5905
1, 5905
1, 5889
1, 5857
1, 5857
1, 5857
1, 5873
1, 5889
1, 5841
1, 5873
1, 5985
1, 5985
1, 5985
1, 5969
1, 5937
1, 5921
1, 5985
1, 6097
1, 6113
1, 6097
1, 6129
1, 6161
1, 6177
1, 6113
1, 6097
1, 6081
1, 6145
1, 6257
1, 6289
1, 6273
1, 6257
1, 6257
1, 6289
1, 6321
1, 6305
1, 6257
1, 6289
1, 6289
1, 6257
1, 6225
1, 6209
1, 6209
1, 6289
1, 6369
1, 6369
1, 6513
1, 6545
1, 6529
1, 6497
1, 6513
1, 6513
1, 6497
1, 6449
1, 6433
1, 6433
1, 6433
1, 6385
1, 6385
1, 6385
1, 6433
1, 6465
1, 6481
1, 6449
1, 6513
1, 6529
1, 6609
1, 6673
1, 6689
1, 6689
1, 6641
1, 6625
1, 6577
1, 6561
1, 6545
1, 6529
1, 6497
1, 6465
1, 6417
1, 6401
1, 6369
1, 6417
1, 6353
1, 6353
1, 6321
1, 6289
1, 6273
1, 6257
1, 6241
1, 6289
1, 6273
1, 6273
1, 6321
1, 6337
1, 6353
1, 6465
1, 6545
1, 6497
1, 6481
1, 6465
1, 6417
1, 6401
1, 6401
1, 6401
1, 6369
1, 6369
1, 6369
1, 6305
1, 6337
1, 6305
1, 6241
1, 6273
1, 6273
1, 6273
1, 6225
1, 6193
1, 6161
1, 6145
1, 6113
1, 6097
1, 6097
1, 6065
1, 6049
1, 6049
1, 6001
1, 6017
1, 5985
1, 5969
1, 6001
1, 5985
1, 5985
1, 6001
1, 5969
1, 5937
1, 6017
1, 6049
1, 6065
1, 6017
1, 6001
1, 6001
1, 5953
1, 5921
1, 5905
1, 5905
1, 5841
1, 5841
1, 5841
1, 5793
1, 5793
1, 5761
1, 5761
1, 5729
1, 5713
1, 5697
1, 5713
1, 5713
1, 5729
1, 5681
1, 5729
1, 5713
1, 5681
1, 5681
1, 5681
1, 5649
1, 5649
1, 5601
1, 5601
1, 5569
1, 5569
1, 5569
1, 5553
1, 5569
1, 5537
1, 5505
1, 5505
1, 5489
1, 5489
1, 5489
1, 5489
1, 5489
1, 5457
1, 5425
1, 5425
1, 5409
1, 5393
1, 5377
1, 5361
1, 5329
1, 5345
1, 5361
1, 5377
1, 5345
1, 5345
1, 5297
1, 5297
1, 5297
1, 5297
1, 5281
1, 5265
1, 5233
1, 5233
1, 5217
1, 5185
1, 5185
1, 5185
1, 5185
1, 5169
1, 5185
1, 5169
1, 5137
1, 5137
1, 5121
1, 5137
1, 5105
1, 5105
1, 5057
1, 5073
1, 5057
1, 5073
1, 5057
1, 5041
1, 5041
1, 5041
1, 5041
1, 5009
1, 4961
1, 4977
1, 4961
1, 4977
1, 5009
1, 4993
1, 4993
1, 5025
1, 4993
1, 4961
1, 4961
1, 4961
1, 4961
1, 4945
1, 4945
1, 4961
1, 4961
1, 4945
1, 4929
1, 4929
1, 4945
1, 4977
1, 4945
1, 4945
1, 4913
1, 4945
1, 4881
1, 4945
1, 4897
1, 4897
1, 4897
1, 4881
1, 4897
1, 4881
1, 4865
1, 4929
1, 4945
1, 4945
1, 4961
1, 5025
1, 5025
1, 5025
1, 5041
1, 5089
1, 5105
1, 5089
1, 5089
1, 5073
1, 5057
1, 5041
1, 5025
1, 4993
1, 5089
1, 5073
1, 5121
1, 5137
1, 5121
1, 5137
1, 5137
1, 5121
1, 5137
1, 5121
1, 5137
1, 5185
1, 5217
1, 5233
1, 5361
1, 5329
1, 5329
1, 5441
1, 5441
1, 5553
1, 5601
1, 5633
1, 5649
1, 5681
1, 5681
1, 5697
1, 5745
1, 5761
1, 5761
1, 5745
1, 5825
1, 5873
1, 6033
1, 6081
1, 6177
1, 6449
1, 6497
1, 6545
1, 6545
1, 6545
1, 6625
1, 6609
1, 6609
1, 6833
1, 6897
1, 6945
1, 6945
1, 7025
1, 7073
1, 7137
1, 7217
1, 7409
1, 7441
1, 7617
1, 7665
1, 7777
1, 7905
1, 8033
1, 8113
1, 8290
1, 8386
1, 8402
1, 8546
1, 8530
1, 8546
1, 8514
1, 8450
1, 8434
1, 8418
1, 8354
1, 8322
1, 8338
1, 8386
1, 8322
1, 8354
1, 8322
1, 8306
1, 8226
1, 8177
1, 8274
1, 8418
1, 8418
1, 8578
1, 8706
1, 8786
1, 8738
1, 8674
1, 8626
1, 8578
1, 8498
1, 8434
1, 8370
1, 8322
1, 8258
1, 8226
1, 8177
1, 8113
1, 8065
1, 7985
1, 7985
1, 7953
1, 7921
1, 7873
1, 7841
1, 7825
1, 7809
1, 7745
1, 7713
1, 7649
1, 7601
1, 7553
1, 7537
1, 7585
1, 7601
1, 7585
1, 7633
1, 7569
1, 7521
1, 7521
1, 7473
1, 7457
1, 7585
1, 7713
1, 7825
1, 8065
1, 8049
1, 8097
1, 8097
1, 8081
1, 8001
1, 7969
1, 7985
1, 7921
1, 7857
1, 7809
1, 7825
1, 7809
1, 7761
1, 7729
1, 7681
1, 7649
1, 7601
1, 7521
1, 7489
1, 7457
1, 7457
1, 7393
1, 7345
1, 7329
1, 7313
1, 7297
1, 7265
1, 7217
1, 7201
1, 7233
1, 7217
1, 7185
1, 7169
1, 7105
1, 7057
1, 7041
1, 7009
1, 6977
1, 7025
1, 6993
1, 6961
1, 6929
1, 6897
1, 6849
1, 6817
1, 6769
1, 6737
1, 6705
1, 6673
1, 6625
1, 6609
1, 6577
1, 6593
1, 6545
1, 6529
1, 6545
1, 6529
1, 6497
1, 6481
1, 6465
1, 6417
1, 6417
1, 6385
1, 6353
1, 6337
1, 6321
1, 6273
1, 6273
1, 6241
1, 6177
1, 6161
1, 6177
1, 6145
1, 6145
1, 6145
1, 6113
1, 6129
1, 6097
1, 6065
1, 6017
1, 6001
1, 5985
1, 5969
1, 6001
1, 5953
1, 5953
1, 5921
1, 5937
1, 5889
1, 5873
1, 5873
1, 5857
1, 5825
1, 5793
1, 5793
1, 5777
1, 5761
1, 5729
1, 5761
1, 5713
1, 5681
1, 5649
1, 5697
1, 5681
1, 5713
1, 5697
1, 5697
1, 5681
1, 5697
1, 5665
1, 5633
1, 5617
1, 5601
1, 5585
1, 5569
1, 5537
1, 5521
1, 5489
1, 5505
1, 5489
1, 5473
1, 5425
1, 5425
1, 5425
1, 5425
1, 5425
1, 5409
1, 5409
1, 5393
1, 5409
1, 5361
1, 5361
1, 5361
1, 5345
1, 5329
1, 5313
1, 5297
1, 5281
1, 5281
1, 5297
1, 5265
1, 5265
1, 5233
1, 5249
1, 5233
1, 5201
1, 5217
1, 5217
1, 5201
1, 5169
1, 5153
1, 5169
1, 5137
1, 5121
1, 5153
1, 5137
1, 5121
1, 5121
1, 5089
1, 5121
1, 5121
1, 5169
1, 5153
1, 5153
1, 5153
1, 5169
1, 5185
1, 5169
1, 5137
1, 5153
1, 5265
1, 5281
1, 5281
1, 5265
1, 5265
1, 5297
1, 5297
1, 5281
1, 5313
1, 5313
1, 5281
1, 5281
1, 5249
1, 5281
1, 5265
1, 5249
1, 5265
1, 5265
1, 5233
1, 5201
1, 5217
1, 5185
1, 5185
1, 5169
1, 5153
1, 5169
1, 5217
1, 5249
1, 5249
1, 5281
1, 5313
1, 5313
1, 5281
1, 5297
1, 5313
1, 5329
1, 5345
1, 5329
1, 5281
1, 5281
1, 5281
1, 5265
1, 5249
1, 5217
1, 5217
1, 5217
1, 5249
1, 5217
1, 5217
1, 5265
1, 5313
1, 5281
1, 5265
1, 5249
1, 5249
1, 5265
1, 5297
1, 5281
1, 5297
1, 5313
1, 5313
1, 5297
1, 5361
1, 5345
1, 5361
1, 5345
1, 5361
1, 5329
1, 5297
1, 5297
1, 5297
1, 5281
1, 5281
1, 5313
1, 5297
1, 5281
1, 5249
1, 5249
1, 5249
1, 5217
1, 5233
1, 5185
1, 5201
1, 5233
1, 5233
1, 5249
1, 5201
1, 5201
1, 5185
1, 5185
1, 5185
1, 5201
1, 5217
1, 5217
1, 5249
1, 5249
1, 5233
1, 5265
1, 5281
1, 5217
1, 5345
1, 5329
1, 5345
1, 5409
1, 5393
1, 5409
1, 5409
1, 5409
1, 5409
1, 5361
1, 5393
1, 5425
1, 5425
1, 5425
1, 5457
1, 5409
1, 5441
1, 5473
1, 5473
1, 5473
1, 5441
1, 5473
1, 5521
1, 5617
1, 5649
1, 5601
1, 5633
1, 5633
1, 5681
1, 5713
1, 5729
1, 5697
1, 5713
1, 5665
1, 5665
1, 5617
1, 5633
1, 5633
1, 5633
1, 5681
1, 5697
1, 5761
1, 5761
1, 5841
1, 5905
1, 5937
1, 5953
1, 5937
1, 6033
1, 6177
1, 6177
1, 6145
1, 6273
1, 6369
1, 6321
1, 6273
1, 6257
1, 6273
1, 6321
1, 6545
1, 6673
1, 6705
1, 6753
1, 6849
1, 6881
1, 7057
1, 7105
1, 7329
1, 7617
1, 7681
1, 7985
1, 8242
1, 8274
1, 8386
1, 8546
1, 8498
1, 8482
1, 8514
1, 8450
1, 8402
1, 8418
1, 8402
1, 8514
1, 8514
1, 8450
1, 8418
1, 8418
1, 8402
1, 8338
1, 8370
1, 8354
1, 8322
1, 8306
1, 8226
1, 8161
1, 8194
1, 8194
1, 8161
1, 8129
1, 8081
1, 8129
1, 8194
1, 8113
1, 8161
1, 8113
1, 8097
1, 8081
1, 8081
1, 8129
1, 8065
1, 8065
1, 8017
1, 8017
1, 8097
1, 8161
1, 8113
1, 8161
1, 8194
1, 8129
1, 8081
1, 8065
1, 8033
1, 8001
1, 7937
1, 7921
1, 7873
1, 7841
1, 7793
1, 7777
1, 7745
1, 7665
1, 7649
1, 7617
1, 7617
1, 7569
1, 7601
1, 7665
1, 7681
1, 7649
1, 7633
1, 7681
1, 7777
1, 7841
1, 7841
1, 7841
1, 7793
1, 7841
1, 7905
1, 7969
1, 7969
1, 7969
1, 7985
1, 7953
1, 7905
1, 7873
1, 7873
1, 7873
1, 7857
1, 7809
1, 7793
1, 7761
1, 7697
1, 7649
1, 7649
1, 7681
1, 7649
1, 7649
1, 7617
1, 7649
1, 7601
1, 7585
1, 7521
1, 7489
1, 7457
1, 7393
1, 7329
1, 7329
1, 7313
1, 7297
1, 7281
1, 7297
1, 7361
1, 7297
1, 7265
1, 7297
1, 7297
1, 7265
1, 7233
1, 7217
1, 7265
1, 7249
1, 7169
1, 7153
1, 7121
1, 7089
1, 7073
1, 7009
1, 7009
1, 6977
1, 6929
1, 6913
1, 6881
1, 6833
1, 6801
1, 6785
1, 6801
1, 6705
1, 6641
1, 6609
1, 6593
1, 6577
1, 6577
1, 6529
1, 6529
1, 6497
1, 6465
1, 6433
1, 6433
1, 6401
1, 6337
1, 6321
1, 6321
1, 6369
1, 6337
1, 6321
1, 6289
1, 6289
1, 6225
1, 6257
1, 6241
1, 6241
1, 6225
1, 6193
1, 6177
1, 6145
1, 6113
1, 6129
1, 6177
1, 6161
1, 6129
1, 6177
1, 6145
1, 6145
1, 6113
1, 6113
1, 6049
1, 6049
1, 6049
1, 6113
1, 6081
1, 6113
1, 6161
1, 6129
1, 6193
1, 6145
1, 6129
1, 6129
1, 6161
1, 6145
1, 6113
1, 6113
1, 6097
1, 6113
1, 6113
1, 6081
1, 6049
1, 6065
1, 6049
1, 6017
1, 6001
1, 6017
1, 6001
1, 6017
1, 6017
1, 5985
1, 5937
1, 5937
1, 6017
1, 6033
1, 6033
1, 6033
1, 6017
1, 6049
1, 6033
1, 6049
1, 6033
1, 6001
1, 6001
1, 6017
1, 6049
1, 6033
1, 6049
1, 6097
1, 6129
1, 6129
1, 6145
1, 6161
1, 6129
1, 6113
1, 6081
1, 6081
1, 6081
1, 6081
1, 6017
1, 6033
1, 6049
1, 6193
1, 6225
1, 6257
1, 6241
1, 6273
1, 6353
1, 6433
1, 6481
1, 6705
1, 6817
1, 6929
1, 6961
1, 6993
1, 6977
1, 7009
1, 7185
1, 7265
1, 7425
1, 7409
1, 7473
1, 7489
1, 7441
1, 7569
1, 7521
1, 7489
1, 7505
1, 7553
1, 7537
1, 7521
1, 7537
1, 7697
1, 7889
1, 7873
1, 7969
1, 8065
1, 8033
1, 8033
1, 8081
1, 8129
1, 8306
1, 8338
1, 8338
1, 8306
1, 8210
1, 8322
1, 8434
1, 8402
1, 8498
1, 8658
1, 8754
1, 8802
1, 8866
1, 8914
1, 8930
1, 8930
1, 8978
1, 9154
1, 9298
1, 9298
1, 9378
1, 9378
1, 9362
1, 9378
1, 9330
1, 9330
1, 9282
1, 9250
1, 9266
1, 9234
1, 9202
1, 9138
1, 9090
1, 9010
1, 8962
1, 8914
1, 8930
1, 8994
1, 9154
1, 9186
1, 9490
1, 9474
1, 9458
1, 9410
1, 9346
1, 9314
1, 9250
1, 9186
1, 9122
1, 9058
1, 8994
1, 8930
1, 8866
1, 8834
1, 8754
1, 8722
1, 8658
1, 8610
1, 8546
1, 8498
1, 8466
1, 8402
1, 8354
1, 8306
1, 8274
1, 8226
1, 8177
1, 8145
1, 8097
1, 8049
1, 8033
1, 8033
1, 8097
1, 8049
1, 8001
1, 7969
1, 7937
1, 7905
1, 7873
1, 7873
1, 7841
1, 7825
1, 7761
1, 7713
1, 7745
1, 7777
1, 7729
1, 7761
1, 7745
1, 7681
1, 7649
1, 7601
1, 7569
1, 7537
1, 7505
1, 7457
1, 7425
1, 7393
1, 7393
1, 7361
1, 7313
1, 7281
1, 7233
1, 7233
1, 7201
1, 7201
1, 7185
1, 7169
1, 7105
1, 7057
1, 7041
1, 6993
1, 6961
1, 6913
1, 6913
1, 6913
1, 6881
1, 6897
1, 6881
1, 6865
1, 6833
1, 6785
1, 6785
1, 6753
1, 6705
1, 6673
1, 6673
1, 6657
1, 6625
1, 6593
1, 6545
1, 6529
1, 6513
1, 6481
1, 6433
1, 6385
1, 6385
1, 6353
1, 6305
1, 6289
1, 6241
1, 6273
1, 6289
1, 6225
1, 6241
1, 6225
1, 6193
1, 6177
1, 6145
1, 6129
1, 6081
1, 6081
1, 6033
1, 6017
1, 5985
1, 5969
1, 5937
1, 5953
1, 5953
1, 5905
1, 5985
1, 5937
1, 5937
1, 5937
1, 5889
1, 5889
1, 5873
1, 5825
1, 5873
1, 5825
1, 5825
1, 5793
1, 5793
1, 5745
1, 5745
1, 5713
1, 5681
1, 5665
1, 5649
1, 5649
1, 5633
1, 5617
1, 5601
1, 5617
1, 5601
1, 5569
1, 5537
1, 5521
1, 5521
1, 5537
1, 5569
1, 5505
1, 5505
1, 5489
1, 5473
1, 5457
1, 5441
1, 5425
1, 5393
1, 5377
1, 5377
1, 5345
1, 5329
1, 5297
1, 5281
1, 5313
1, 5329
1, 5313
1, 5265
1, 5281
1, 5313
1, 5329
1, 5297
1, 5281
1, 5313
1, 5281
1, 5297
1, 5281
1, 5249
1, 5281
1, 5249
1, 5249
1, 5281
1, 5201
1, 5185
1, 5185
1, 5169
1, 5233
1, 5265
1, 5265
1, 5233
1, 5233
1, 5233
1, 5201
1, 5201
1, 5185
1, 5169
1, 5169
1, 5201
1, 5217
1, 5217
1, 5201
1, 5201
1, 5185
1, 5169
1, 5153
1, 5121
1, 5137
1, 5121
1, 5153
1, 5169
1, 5137
1, 5169
1, 5137
1, 5185
1, 5153
1, 5169
1, 5137
1, 5153
1, 5121
1, 5137
1, 5121
1, 5121
1, 5105
1, 5105
1, 5089
1, 5089
1, 5105
1, 5089
1, 5105
1, 5105
1, 5089
1, 5073
1, 5041
1, 5073
1, 5073
1, 5041
1, 5025
1, 5057
1, 5009
1, 4977
1, 4993
1, 4993
1, 4993
1, 4977
1, 4929
1, 4961
1, 4945
1, 4929
1, 4929
1, 4897
1, 4929
1, 4913
1, 4945
1, 4929
1, 4961
1, 4929
1, 4913
1, 4929
1, 4929
1, 4929
1, 4961
1, 4961
1, 4961
1, 4945
1, 4929
1, 4929
1, 4913
1, 4929
1, 4929
1, 4929
1, 4961
1, 4977
1, 4977
1, 4945
1, 4945
1, 4961
1, 4945
1, 4961
1, 4993
1, 4961
1, 4961
1, 4977
1, 4961
1, 4929
1, 4945
1, 4945
1, 4929
1, 4929
1, 4993
1, 5089
1, 5137
1, 5121
1, 5105
1, 5137
1, 5089
1, 5105
1, 5089
1, 5089
1, 5121
1, 5121
1, 5089
1, 5137
1, 5185
1, 5169
1, 5169
1, 5169
1, 5201
1, 5185
1, 5201
1, 5249
1, 5249
1, 5329
1, 5345
1, 5329
1, 5361
1, 5425
1, 5457
1, 5473
1, 5521
1, 5489
1, 5505
1, 5505
1, 5537
1, 5553
1, 5553
1, 5585
1, 5569
1, 5569
1, 5553
1, 5569
1, 5569
1, 5553
1, 5553
1, 5569
1, 5617
1, 5617
1, 5601
1, 5729
1, 5889
1, 5937
1, 5937
1, 6017
1, 5953
1, 5921
1, 5905
1, 5873
1, 5873
1, 5841
1, 5809
1, 5841
1, 5825
1, 5809
1, 5793
1, 5857
1, 5921
1, 5953
1, 5905
1, 5921
1, 5921
1, 5969
1, 5969
1, 5937
1, 5953
1, 5953
1, 5937
1, 5953
1, 5905
1, 5905
1, 5857
1, 5969
1, 6081
1, 6097
1, 6129
1, 6193
1, 6193
1, 6289
1, 6321
1, 6353
1, 6417
1, 6449
1, 6481
1, 6529
1, 6529
1, 6529
1, 6513
1, 6577
1, 6593
1, 6577
1, 6529
1, 6545
1, 6481
1, 6481
1, 6593
1, 6657
1, 6657
1, 6641
1, 6705
1, 6689
1, 6657
1, 6657
1, 6593
1, 6577
1, 6625
1, 6609
1, 6689
1, 6705
1, 6689
1, 6721
1, 6689
1, 6673
1, 6625
1, 6609
1, 6593
1, 6561
1, 6545
1, 6673
1, 6721
1, 6689
1, 6657
1, 6689
1, 6673
1, 6705
1, 6657
1, 6689
1, 6673
1, 6625
1, 6593
1, 6561
1, 6561
1, 6529
1, 6497
1, 6513
1, 6529
1, 6529
1, 6481
1, 6449
1, 6561
1, 6609
1, 6593
1, 6593
1, 6545
1, 6497
1, 6497
1, 6497
1, 6465
1, 6465
1, 6449
1, 6449
1, 6449
1, 6465
1, 6529
1, 6593
1, 6593
1, 6561
1, 6545
1, 6481
1, 6449
1, 6513
1, 6561
1, 6513
1, 6529
1, 6593
1, 6609
1, 6577
1, 6577
1, 6545
1, 6513
1, 6529
1, 6577
1, 6721
1, 6769
1, 6769
1, 6817
1, 6801
1, 6769
1, 6737
1, 6705
1, 6705
1, 6689
1, 6721
1, 6689
1, 6721
1, 6785
1, 6801
1, 6801
1, 6881
1, 6849
1, 6817
1, 6785
1, 6753
1, 6737
1, 6785
1, 6753
1, 6689
1, 6689
1, 6657
1, 6609
1, 6593
1, 6561
1, 6529
1, 6497
1, 6529
1, 6513
1, 6577
1, 6561
1, 6513
1, 6529
1, 6497
1, 6481
1, 6481
1, 6465
1, 6401
1, 6385
1, 6353
1, 6353
1, 6337
1, 6273
1, 6369
1, 6385
1, 6321
1, 6353
1, 6337
1, 6289
1, 6289
1, 6257
1, 6241
1, 6193
1, 6209
1, 6257
1, 6305
1, 6321
1, 6289
1, 6273
1, 6369
1, 6353
1, 6337
1, 6337
1, 6337
1, 6305
1, 6289
1, 6273
1, 6273
1, 6241
1, 6241
1, 6209
1, 6209
1, 6193
1, 6161
1, 6145
1, 6177
1, 6161
1, 6145
1, 6113
1, 6081
1, 6033
1, 6049
1, 6017
1, 5969
1, 5937
1, 5921
1, 5905
1, 5889
1, 5985
1, 6033
1, 6049
1, 6097
1, 6065
1, 6033
1, 6001
1, 5985
1, 5969
1, 5969
1, 5937
1, 5953
1, 5905
1, 5873
1, 5873
1, 5873
1, 5841
1, 5857
1, 5857
1, 5857
1, 5857
1, 5825
1, 5841
1, 5873
1, 5841
1, 5825
1, 5809
1, 5809
1, 5777
1, 5793
1, 5713
1, 5745
1, 5713
1, 5713
1, 5777
1, 5809
1, 5809
1, 5825
1, 5793
1, 5761
1, 5793
1, 5777
1, 5761
1, 5761
1, 5745
1, 5745
1, 5729
1, 5713
1, 5713
1, 5713
1, 5681
1, 5745
1, 5777
1, 5777
1, 5777
1, 5793
1, 5777
1, 5793
1, 5777
1, 5793
1, 5793
1, 5793
1, 5777
1, 5777
1, 5825
1, 5873
1, 5905
1, 5937
1, 5937
1, 5969
1, 5953
1, 5953
1, 5985
1, 5985
1, 5985
1, 6033
1, 6017
1, 5969
1, 5969
1, 6017
1, 6033
1, 6081
1, 6113
1, 6145
1, 6145
1, 6161
1, 6209
1, 6177
1, 6145
1, 6113
1, 6113
1, 6225
1, 6257
1, 6305
1, 6513
1, 6513
1, 6577
1, 6497
1, 6593
1, 6545
1, 6513
1, 6465
1, 6449
1, 6417
1, 6465
1, 6417
1, 6401
1, 6417
1, 6417
1, 6417
1, 6417
1, 6433
1, 6529
1, 6561
1, 6705
1, 6817
1, 6817
1, 6913
1, 6961
1, 6993
1, 7009
1, 7089
1, 7137
1, 7329
1, 7377
1, 7345
1, 7377
1, 7409
1, 7425
1, 7489
1, 7553
1, 7505
1, 7521
1, 7537
1, 7553
1, 7553
1, 7537
1, 7505
1, 7489
1, 7537
1, 7649
1, 7809
1, 7889
1, 7953
1, 7921
1, 7905
1, 7889
1, 7873
1, 7809
1, 7809
1, 7809
1, 7793
1, 7777
1, 7713
1, 7713
1, 7697
1, 7665
1, 7969
1, 8001
1, 7969
1, 7985
1, 8097
1, 8210
1, 8242
1, 8290
1, 8498
1, 8674
1, 8642
1, 8578
1, 8514
1, 8482
1, 8418
1, 8338
1, 8290
1, 8226
1, 8258
1, 8210
1, 8194
1, 8274
1, 8338
1, 8258
1, 8226
1, 8194
1, 8194
1, 8145
1, 8097
1, 8065
1, 8033
1, 7969
1, 7937
1, 7873
1, 7825
1, 7793
1, 7745
1, 7697
1, 7649
1, 7585
1, 7553
1, 7521
1, 7473
1, 7457
1, 7425
1, 7377
1, 7361
1, 7265
1, 7249
1, 7233
1, 7217
1, 7377
1, 7441
1, 7425
1, 7409
1, 7409
1, 7425
1, 7409
1, 7425
1, 7441
1, 7473
1, 7505
1, 7489
1, 7425
1, 7409
1, 7409
1, 7377
1, 7393
1, 7361
1, 7345
1, 7329
1, 7313
1, 7281
1, 7249
1, 7233
1, 7201
1, 7153
1, 7089
1, 7089
1, 7041
1, 7009
1, 6977
1, 6929
1, 6897
1, 6881
1, 6849
1, 6817
1, 6801
1, 6753
1, 6737
1, 6689
1, 6673
1, 6689
1, 6641
1, 6641
1, 6609
1, 6561
1, 6529
1, 6561
1, 6577
1, 6577
1, 6593
1, 6513
1, 6481
1, 6433
1, 6401
1, 6401
1, 6353
1, 6321
1, 6305
1, 6321
1, 6241
1, 6209
1, 6225
1, 6257
1, 6305
1, 6289
1, 6273
1, 6257
1, 6209
1, 6193
1, 6161
1, 6161
1, 6129
1, 6113
1, 6097
1, 6097
1, 6097
1, 6097
1, 6081
1, 6049
1, 6033
1, 5985
1, 5985
1, 5953
1, 5937
1, 5921
1, 5873
1, 5857
1, 5857
1, 5825
1, 5873
1, 5873
1, 5905
1, 5889
1, 5873
1, 5873
1, 5841
1, 5873
1, 5889
1, 5889
1, 5889
1, 5825
1, 5809
1, 5809
1, 5793
1, 5793
1, 5793
1, 5825
1, 5841
1, 5841
1, 5841
1, 5857
1, 5841
1, 5937
1, 5937
1, 5937
1, 5953
1, 5921
1, 5905
1, 5889
1, 5873
1, 5857
1, 5841
1, 5841
1, 5825
1, 5793
1, 5761
1, 5761
1, 5745
1, 5745
1, 5729
1, 5729
1, 5681
1, 5681
1, 5697
1, 5665
1, 5665
1, 5681
1, 5649
1, 5617
1, 5601
1, 5633
1, 5633
1, 5585
1, 5633
1, 5697
1, 5681
1, 5681
1, 5665
1, 5665
1, 5697
1, 5649
1, 5649
1, 5601
1, 5585
1, 5633
1, 5601
1, 5585
1, 5537
1, 5537
1, 5521
1, 5521
1, 5473
1, 5457
1, 5457
1, 5473
1, 5441
1, 5409
1, 5409
1, 5377
1, 5393
1, 5409
1, 5377
1, 5345
1, 5345
1, 5345
1, 5377
1, 5425
1, 5425
1, 5393
1, 5377
1, 5329
1, 5377
1, 5345
1, 5329
1, 5313
1, 5297
1, 5281
1, 5249
1, 5281
1, 5233
1, 5265
1, 5249
1, 5233
1, 5233
1, 5217
1, 5185
1, 5185
1, 5153
1, 5169
1, 5185
1, 5169
1, 5137
1, 5153
1, 5121
1, 5137
1, 5105
1, 5089
1, 5121
1, 5121
1, 5105
1, 5121
1, 5137
1, 5121
1, 5121
1, 5105
1, 5089
1, 5073
1, 5057
1, 5057
1, 5025
1, 5009
1, 5041
1, 5057
1, 5041
1, 5041
1, 4977
1, 5057
1, 5121
1, 5153
1, 5153
1, 5153
1, 5201
1, 5297
1, 5377
1, 5409
1, 5409
1, 5473
1, 5457
1, 5457
1, 5409
1, 5425
1, 5489
1, 5441
1, 5473
1, 5441
1, 5505
1, 5617
1, 5633
1, 5777
1, 5745
1, 5777
1, 5761
1, 5761
1, 5761
1, 5761
1, 5729
1, 5745
1, 5761
1, 5713
1, 5729
1, 5681
1, 5729
1, 5809
1, 5857
1, 5857
1, 5921
1, 5937
1, 5889
1, 5873
1, 5889
1, 5921
1, 5921
1, 5905
1, 5969
1, 5969
1, 5953
1, 6001
1, 6017
1, 6017
1, 5985
1, 5953
1, 5985
1, 6017
1, 6017
1, 6017
1, 6033
1, 6049
1, 6033
1, 6049
1, 6033
1, 6065
1, 6065
1, 6017
1, 6017
1, 5985
1, 6017
1, 6049
1, 6161
1, 6257
1, 6257
1, 6257
1, 6321
1, 6337
1, 6289
1, 6273
1, 6273
1, 6241
1, 6273
1, 6225
1, 6209
1, 6209
1, 6193
1, 6177
1, 6161
1, 6145
1, 6129
1, 6145
1, 6145
1, 6129
1, 6129
1, 6081
1, 6065
1, 6081
1, 6049
1, 6049
1, 6113
1, 6129
1, 6097
1, 6081
1, 6049
1, 6065
1, 6113
1, 6129
1, 6097
1, 6081
1, 6065
1, 6081
1, 6081
1, 6065
1, 6065
1, 6049
1, 6065
1, 6033
1, 6033
1, 6001
1, 5953
1, 5953
1, 5937
1, 5937
1, 5969
1, 5953
1, 5953
1, 5921
1, 5905
1, 5969
1, 5953
1, 5937
1, 5937
1, 5889
1, 5889
1, 5889
1, 5873
1, 5857
1, 5857
1, 5809
1, 5809
1, 5793
1, 5777
1, 5761
1, 5809
1, 5841
1, 5857
1, 5825
1, 5825
1, 5825
1, 5809
1, 5793
1, 5777
1, 5745
1, 5745
1, 5713
1, 5697
1, 5761
1, 5713
1, 5697
1, 5697
1, 5729
1, 5697
1, 5697
1, 5681
1, 5681
1, 5665
1, 5617
1, 5601
1, 5617
1, 5585
1, 5569
1, 5553
1, 5553
1, 5537
1, 5553
1, 5553
1, 5585
1, 5585
1, 5665
1, 5665
1, 5649
1, 5649
1, 5633
1, 5649
1, 5665
1, 5665
1, 5633
1, 5665
1, 5649
1, 5681
1, 5649
1, 5649
1, 5617
1, 5617
1, 5569
1, 5585
1, 5585
1, 5585
1, 5553
1, 5553
1, 5649
1, 5665
1, 5681
1, 5649
1, 5633
1, 5617
1, 5601
1, 5569
1, 5537
1, 5505
1, 5521
1, 5505
1, 5473
1, 5457
1, 5409
1, 5425
1, 5441
1, 5473
1, 5425
1, 5425
1, 5425
1, 5393
1, 5361
1, 5377
1, 5345
1, 5345
1, 5329
1, 5329
1, 5281
1, 5265
1, 5249
1, 5249
1, 5233
1, 5249
1, 5233
1, 5201
1, 5169
1, 5169
1, 5201
1, 5185
1, 5137
1, 5121
1, 5121
1, 5121
1, 5153
1, 5089
1, 5089
1, 5105
1, 5057
1, 5089
1, 5089
1, 5057
1, 5073
1, 5041
1, 5057
1, 5041
1, 5057
1, 5041
1, 5041
1, 4993
1, 5009
1, 4977
1, 4945
1, 4977
1, 4945
1, 4945
1, 4977
1, 4961
1, 4913
1, 4897
1, 4929
1, 4897
1, 4897
1, 4881
1, 4897
1, 4897
1, 4849
1, 4865
1, 4865
1, 4865
1, 4833
1, 4817
1, 4801
1, 4833
1, 4801
1, 4849
1, 4817
1, 4817
1, 4801
1, 4833
1, 4817
1, 4801
1, 4769
1, 4801
1, 4801
1, 4785
1, 4753
1, 4737
1, 4737
1, 4785
1, 4769
1, 4769
1, 4753
1, 4785
1, 4753
1, 4737
1, 4737
1, 4753
1, 4705
1, 4769
1, 4721
1, 4705
1, 4721
1, 4705
1, 4705
1, 4753
1, 4769
1, 4769
1, 4785
1, 4737
1, 4769
1, 4737
1, 4673
1, 4769
1, 4737
1, 4737
1, 4753
1, 4753
1, 4753
1, 4673
1, 4689
1, 4737
1, 4689
1, 4769
1, 4785
1, 4769
1, 4817
1, 4817
1, 4865
1, 4865
1, 4833
1, 4833
1, 4833
1, 4865
1, 4833
1, 4913
1, 4961
1, 4993
1, 4993
1, 5057
1, 5089
1, 5153
1, 5153
1, 5137
1, 5105
1, 5169
1, 5249
1, 5297
1, 5313
1, 5329
1, 5329
1, 5345
1, 5377
1, 5409
1, 5409
1, 5505
1, 5505
1, 5633
1, 5713
1, 6001
1, 6033
1, 6081
1, 6097
1, 6129
1, 6161
1, 6209
1, 6209
1, 6193
1, 6177
1, 6161
1, 6177
1, 6353
1, 6401
1, 6865
1, 7089
1, 7329
1, 7569
1, 7521
1, 7473
1, 7569
1, 7633
1, 7617
1, 7649
1, 7745
1, 7761
1, 7809
1, 7793
1, 7873
1, 8049
1, 8001
1, 8065
1, 8226
1, 8210
1, 8434
1, 8418
1, 8514
1, 8514
1, 8482
1, 8434
1, 8418
1, 8418
1, 8354
1, 8322
1, 8290
1, 8258
1, 8242
1, 8194
1, 8306
1, 8306
1, 8354
1, 8370
1, 8386
1, 8482
1, 8514
1, 8530
1, 8498
1, 8530
1, 8546
1, 8530
1, 8530
1, 8578
1, 8530
1, 8514
1, 8482
1, 8466
1, 8450
1, 8418
1, 8306
1, 8290
1, 8258
1, 8161
1, 8129
1, 8065
1, 8033
1, 7985
1, 7937
1, 7905
1, 7825
1, 7793
1, 7745
1, 7713
1, 7665
1, 7633
1, 7601
1, 7537
1, 7505
1, 7473
1, 7457
1, 7409
1, 7393
1, 7329
1, 7297
1, 7249
1, 7217
1, 7201
1, 7217
1, 7425
1, 7553
1, 7793
1, 7825
1, 7793
1, 7745
1, 7761
1, 7729
1, 7809
1, 7857
1, 7825
1, 7905
1, 8049
1, 8017
1, 7953
1, 7905
1, 7905
1, 7873
1, 7857
1, 7777
1, 7761
1, 7713
1, 7665
1, 7617
1, 7585
1, 7569
1, 7553
1, 7537
1, 7505
1, 7457
1, 7425
1, 7377
1, 7377
1, 7345
1, 7345
1, 7297
1, 7233
1, 7217
1, 7169
1, 7153
1, 7121
1, 7089
1, 7041
1, 7009
1, 6449
1, 6465
1, 6497
1, 6545
1, 6545
1, 6545
1, 6513
1, 6529
1, 6625
1, 6593
1, 6593
1, 6593
1, 6577
1, 6561
1, 6545
1, 6513
1, 6513
1, 6529
1, 6529
1, 6529
1, 6513
1, 6481
1, 6497
1, 6481
1, 6529
1, 6513
1, 6465
1, 6465
1, 6497
1, 6465
1, 6417
1, 6449
1, 6433
1, 6449
1, 6433
1, 6401
1, 6385
1, 6385
1, 6417
1, 6401
1, 6417
1, 6417
1, 6433
1, 6465
1, 6497
1, 6465
1, 6497
1, 6497
1, 6513
1, 6481
1, 6497
1, 6513
1, 6497
1, 6513
1, 6513
1, 6497
1, 6497
1, 6497
1, 6497
1, 6481
1, 6497
1, 6481
1, 6497
1, 6497
1, 6513
1, 6497
1, 6497
1, 6481
1, 6465
1, 6449
1, 6433
1, 6449
1, 6497
1, 6465
1, 6561
1, 6529
1, 6529
1, 6529
1, 6513
1, 6529
1, 6513
1, 6529
1, 6497
1, 6513
1, 6497
1, 6481
1, 6497
1, 6449
1, 6481
1, 6481
1, 6481
1, 6465
1, 6529
1, 6529
1, 6529
1, 6529
1, 6513
1, 6529
1, 6529
1, 6529
1, 6513
1, 6545
1, 6545
1, 6513
1, 6529
1, 6545
1, 6513
1, 6497
1, 6497
1, 6449
1, 6449
1, 6449
1, 6465
1, 6465
1, 6481
1, 6513
1, 6481
1, 6497
1, 6513
1, 6433
1, 6465
1, 6465
1, 6465
1, 6465
1, 6481
1, 6465
1, 6465
1, 6449
1, 6449
1, 6433
1, 6417
1, 6417
1, 6417
1, 6401
1, 6401
1, 6401
1, 6401
1, 6369
1, 6369
1, 6369
1, 6385
1, 6433
1, 6417
1, 6401
1, 6385
1, 6401
1, 6385
1, 6369
1, 6369
1, 6369
1, 6337
1, 6305
1, 6337
1, 6321
1, 6305
1, 6321
1, 6305
1, 6305
1, 6305
1, 6289
1, 6289
1, 6305
1, 6305
1, 6289
1, 6273
1, 6273
1, 6305
1, 6273
1, 6273
1, 6273
1, 6273
1, 6241
1, 6241
1, 6241
1, 6289
1, 6273
1, 6257
1, 6241
1, 6273
1, 6257
1, 6273
1, 6241
1, 6241
1, 6209
1, 6225
1, 6225
1, 6225
1, 6225
1, 6161
1, 6209
1, 6241
1, 6257
1, 6241
1, 6273
1, 6257
1, 6241
1, 6273
1, 6289
1, 6273
1, 6257
1, 6273
1, 6289
1, 6305
1, 6273
1, 6289
1, 6289
1, 6273
1, 6289
1, 6257
1, 6257
1, 6257
1, 6225
1, 6241
1, 6209
1, 6193
1, 6209
1, 6193
1, 6209
1, 6225
1, 6225
1, 6225
1, 6225
1, 6209
1, 6209
1, 6225
1, 6193
1, 6193
1, 6209
1, 6193
1, 6209
1, 6161
1, 6161
1, 6177
1, 6177
1, 6177
1, 6177
1, 6177
1, 6177
1, 6161
1, 6193
1, 6177
1, 6193
1, 6225
1, 6193
1, 6193
1, 6177
1, 6177
1, 6177
1, 6177
1, 6161
1, 6161
1, 6161
1, 6145
1, 6145
1, 6161
1, 6161
1, 6177
1, 6225
1, 6241
1, 6209
1, 6209
1, 6193
1, 6225
1, 6225
1, 6225
1, 6241
1, 6241
1, 6225
1, 6241
1, 6257
1, 6257
1, 6257
1, 6273
1, 6305
1, 6305
1, 6305
1, 6305
1, 6305
1, 6305
1, 6289
1, 6257
1, 6273
1, 6273
1, 6273
1, 6241
1, 6225
1, 6241
1, 6209
1, 6273
1, 6257
1, 6241
1, 6225
1, 6257
1, 6209
1, 6257
1, 6257
1, 6273
1, 6289
1, 6321
1, 6305
1, 6321
1, 6305
1, 6321
1, 6321
1, 6273
1, 6273
1, 6273
1, 6289
1, 6289
1, 6241
1, 6273
1, 6241
1, 6273
1, 6289
1, 6305
1, 6273
1, 6289
1, 6273
1, 6305
1, 6305
1, 6337
1, 6337
1, 6369
1, 6353
1, 6369
1, 6369
1, 6369
1, 6337
1, 6401
1, 6465
1, 6465
1, 6497
1, 6497
1, 6481
1, 6481
1, 6481
1, 6513
1, 6529
1, 6513
1, 6641
1, 6641
1, 6673
1, 6673
1, 6673
1, 6689
1, 6705
1, 6721
1, 6705
1, 6753
1, 6865
1, 6945
1, 6977
1, 7121
1, 7137
1, 7121
1, 7121
1, 7121
1, 7153
1, 7137
1, 7169
1, 7201
1, 7201
1, 7217
1, 7265
1, 7329
1, 7297
1, 7393
1, 7425
1, 7457
1, 7457
1, 7441
1, 7473
1, 7457
1, 7489
1, 7553
1, 7553
1, 7713
1, 7825
1, 7857
1, 7857
1, 7841
1, 7857
1, 7841
1, 7809
1, 7873
1, 7905
1, 7889
1, 7905
1, 7873
1, 7873
1, 7841
1, 7841
1, 7841
1, 7841
1, 7841
1, 7857
1, 7825
1, 7793
1, 7729
1, 7745
1, 7681
1, 7665
1, 7633
1, 7633
1, 7617
1, 7585
1, 7569
1, 7537
1, 7489
1, 7473
1, 7441
1, 7409
1, 7409
1, 7409
1, 7409
1, 7361
1, 7329
1, 7329
1, 7313
1, 7297
1, 7297
1, 7265
1, 7233
1, 7265
1, 7249
1, 7249
1, 7185
1, 7201
1, 7217
1, 7217
1, 7169
1, 7137
1, 7169
1, 7137
1, 7089
1, 7089
1, 7041
1, 7041
1, 7057
1, 7041
1, 7073
1, 7041
1, 7057
1, 7009
1, 7009
1, 6945
1, 6945
1, 6945
1, 6897
1, 6897
1, 6881
1, 6945
1, 6929
1, 6993
1, 6897
1, 6897
1, 6849
1, 6817
1, 6849
1, 6849
1, 6817
1, 6865
1, 6865
1, 6833
1, 6993
1, 6929
1, 6865
1, 6849
1, 6865
1, 6865
1, 6817
1, 6817
1, 6817
1, 6849
1, 6865
1, 6817
1, 6801
1, 6801
1, 6865
1, 6881
1, 6849
1, 6801
1, 6897
1, 6945
1, 6945
1, 7073
1, 7185
1, 7201
1, 7217
1, 7137
1, 7105
1, 7137
1, 7137
1, 7121
1, 7185
1, 7201
1, 7169
1, 7185
1, 7153
1, 7137
1, 7137
1, 7105
1, 7073
1, 7025
1, 7025
1, 7041
1, 7041
1, 7057
1, 7041
1, 7009
1, 7009
1, 6993
1, 7009
1, 6993
1, 6993
1, 7009
1, 6977
1, 6993
1, 6961
1, 6945
1, 6929
1, 6929
1, 6945
1, 6977
1, 6929
1, 6929
1, 6913
1, 6897
1, 6881
1, 6881
1, 6881
1, 6849
1, 6849
1, 6849
1, 6817
1, 6849
1, 6801
1, 6801
1, 6753
1, 6769
1, 6737
1, 6705
1, 6721
1, 6657
1, 6673
1, 6657
1, 6657
1, 6657
1, 6705
1, 6753
1, 6737
1, 6785
1, 6785
1, 6753
1, 6705
1, 6705
1, 6705
1, 6753
1, 6881
1, 6881
1, 6849
1, 6881
1, 6865
1, 6881
1, 6881
1, 6865
1, 6849
1, 6833
1, 6785
1, 6769
1, 6785
1, 6769
1, 6753
1, 6769
1, 6801
1, 6817
1, 6785
1, 6801
1, 6769
1, 6753
1, 6737
1, 6753
1, 6737
1, 6721
1, 6721
1, 6753
1, 6705
1, 6753
1, 6721
1, 6721
1, 6721
1, 6689
1, 6689
1, 6689
1, 6721
1, 6705
1, 6689
1, 6657
1, 6689
1, 6705
1, 6673
1, 6689
1, 6657
1, 6657
1, 6673
1, 6689
1, 6673
1, 6657
1, 6577
1, 6625
1, 6641
1, 6689
1, 6689
1, 6817
1, 6785
1, 6865
1, 6881
1, 6849
1, 6849
1, 6865
1, 6897
1, 6961
1, 6929
1, 6913
1, 6913
1, 6897
1, 6865
1, 6849
1, 6897
1, 6913
1, 6913
1, 6881
1, 6865
1, 6865
1, 6833
1, 6849
1, 6833
1, 6817
1, 6817
1, 6801
1, 6769
1, 6785
1, 6753
1, 6737
1, 6737
1, 6753
1, 6785
1, 6769
1, 6753
1, 6753
1, 6737
1, 6689
1, 6705
1, 6785
1, 6849
1, 6865
1, 6865
1, 6865
1, 6865
1, 6881
1, 6849
1, 6833
1, 6817
1, 6817
1, 6801
1, 6849
1, 6977
1, 6993
1, 7089
1, 7105
1, 7105
1, 7089
1, 7105
1, 7089
1, 7105
1, 7089
1, 7073
1, 7057
1, 7073
1, 7121
1, 7121
1, 7137
1, 7089
1, 7105
1, 7073
1, 7073
1, 7041
1, 7009
1, 7073
1, 7105
1, 7089
1, 7137
1, 7137
1, 7121
1, 7121
1, 7137
1, 7105
1, 7105
1, 7089
1, 7057
1, 7057
1, 7041
1, 7041
1, 7057
1, 7041
1, 7025
1, 6977
1, 6977
1, 6977
1, 6961
1, 6977
1, 7057
1, 7041
1, 7025
1, 7025
1, 7025
1, 7073
1, 7073
1, 7025
1, 7025
1, 6993
1, 6945
1, 6961
1, 6945
1, 6929
1, 6897
1, 6881
1, 6881
1, 6977
1, 7041
1, 7041
1, 7041
1, 7073
1, 7105
1, 7089
1, 7089
1, 7073
1, 7041
1, 7041
1, 7009
1, 6993
1, 7025
1, 7025
1, 7057
1, 7009
1, 7025
1, 7009
1, 6993
1, 6977
1, 6961
1, 6945
1, 6913
1, 6913
1, 6913
1, 6897
1, 6881
1, 6865
1, 6849
1, 6849
1, 6865
1, 6849
1, 6897
1, 6913
1, 6897
1, 6881
1, 6849
1, 6833
1, 6833
1, 6881
1, 6865
1, 6865
1, 6881
1, 6881
1, 6913
1, 6945
1, 6913
1, 6977
1, 6961
1, 6929
1, 6929
1, 7009
1, 7041
1, 7009
1, 7009
1, 6977
1, 6961
1, 6961
1, 6945
1, 6929
1, 6945
1, 6929
1, 6961
1, 6881
1, 6865
1, 6865
1, 6849
1, 6865
1, 6961
1, 7009
1, 6961
1, 6945
1, 6961
1, 6977
1, 6945
1, 6929
1, 6977
1, 6993
1, 6977
1, 6945
1, 6945
1, 6929
1, 6913
1, 6913
1, 6865
1, 6849
1, 6833
1, 6833
1, 6785
1, 6785
1, 6801
1, 6769
1, 6753
1, 6753
1, 6785
1, 6785
1, 6769
1, 6737
1, 6737
1, 6737
1, 6753
1, 6785
1, 6737
1, 6737
1, 6705
1, 6705
1, 6673
1, 6673
1, 6689
1, 6721
1, 6721
1, 6689
1, 6673
1, 6657
1, 6657
1, 6641
1, 6657
1, 6657
1, 6625
1, 6625
1, 6609
1, 6561
1, 6561
1, 6625
1, 6625
1, 6593
1, 6593
1, 6545
1, 6561
1, 6529
1, 6529
1, 6513
1, 6497
1, 6481
1, 6481
1, 6465
1, 6465
1, 6449
1, 6449
1, 6433
1, 6401
1, 6385
1, 6401
1, 6385
1, 6369
1, 6337
1, 6321
1, 6305
1, 6321
1, 6321
1, 6337
1, 6321
1, 6305
1, 6289
1, 6273
1, 6257
1, 6273
1, 6241
1, 6257
1, 6241
1, 6241
1, 6241
1, 6225
1, 6209
1, 6209
1, 6193
1, 6193
1, 6177
1, 6161
1, 6161
1, 6145
1, 6145
1, 6129
1, 6145
1, 6161
1, 6097
1, 6113
1, 6113
1, 6113
1, 6145
1, 6145
1, 6129
1, 6113
1, 6097
1, 6081
1, 6097
1, 6081
1, 6049
1, 6065
1, 6081
1, 6081
1, 6081
1, 6049
1, 6049
1, 6065
1, 6081
1, 6065
1, 6081
1, 6065
1, 6049
1, 6033
1, 6033
1, 6017
1, 6033
1, 6017
1, 6017
1, 6017
1, 6049
1, 6049
1, 6033
1, 6033
1, 6017
1, 6017
1, 6017
1, 6033
1, 6049
1, 6033
1, 6001
1, 6001
1, 5985
1, 5985
1, 6001
1, 6001
1, 6049
1, 6049
1, 6049
1, 6033
1, 6049
1, 6017
1, 6017
1, 6033
1, 6033
1, 6001
1, 6017
1, 6001
1, 6001
1, 5969
1, 5985
1, 5985
1, 6001
1, 5969
1, 5985
1, 5985
1, 5985
1, 5985
1, 6017
1, 5969
1, 6017
1, 6017
1, 6017
1, 6049
1, 6081
1, 6065
1, 6113
1, 6145
1, 6113
1, 6097
1, 6081
1, 6097
1, 6097
1, 6145
1, 6209
1, 6193
1, 6209
1, 6193
1, 6193
1, 6193
1, 6193
1, 6177
1, 6193
1, 6209
1, 6225
1, 6225
1, 6337
1, 6401
1, 6577
1, 6561
1, 6561
1, 6545
1, 6545
1, 6545
1, 6545
1, 6513
1, 6545
1, 6561
1, 6577
1, 6593
1, 6593
1, 6609
1, 6609
1, 6769
1, 6833
1, 6833
1, 7009
1, 7009
1, 7009
1, 6993
1, 6977
1, 6993
1, 6977
1, 7137
1, 7217
1, 7313
1, 7377
1, 7457
1, 7665
1, 7809
1, 8242
1, 8354
1, 8338
1, 8306
1, 8306
1, 8274
1, 8242
1, 8274
1, 8290
1, 8242
1, 8322
1, 8338
1, 8418
1, 8498
1, 8498
1, 8466
1, 8434
1, 8418
1, 8434
1, 8418
1, 8466
1, 8642
1, 8642
1, 8722
1, 8722
1, 8786
1, 8722
1, 8706
1, 8674
1, 8674
1, 8594
1, 8594
1, 8642
1, 8626
1, 8658
1, 8642
1, 8626
1, 8562
1, 8562
1, 8514
1, 8482
1, 8402
1, 8402
1, 8354
1, 8306
1, 8274
1, 8226
1, 8194
1, 8161
1, 8145
1, 8097
1, 8049
1, 8017
1, 8001
1, 7969
1, 7953
1, 7921
1, 7905
1, 7841
1, 7857
1, 7809
1, 7777
1, 7793
1, 7745
1, 7745
1, 7729
1, 7713
1, 7681
1, 7649
1, 7633
1, 7617
1, 7585
1, 7569
1, 7537
1, 7521
1, 7505
1, 7473
1, 7441
1, 7409
1, 7393
1, 7361
1, 7345
1, 7329
1, 7329
1, 7297
1, 7265
1, 7265
1, 7217
1, 7217
1, 7201
1, 7169
1, 7153
1, 7153
1, 7137
1, 7137
1, 7121
1, 7105
1, 7073
1, 7073
1, 7089
1, 7041
1, 7025
1, 7025
1, 7009
1, 7009
1, 6993
1, 6961
1, 6929
1, 6929
1, 6913
1, 6913
1, 6881
1, 6865
1, 6849
1, 6817
1, 6785
1, 6801
1, 6769
1, 6769
1, 6737
1, 6721
1, 6721
1, 6721
1, 6689
1, 6689
1, 6673
1, 6657
1, 6657
1, 6657
1, 6657
1, 6625
1, 6657
1, 6609
1, 6593
1, 6593
1, 6561
1, 6545
1, 6545
1, 6513
1, 6513
1, 6529
1, 6481
1, 6497
1, 6481
1, 6481
1, 6465
1, 6465
1, 6449
1, 6449
1, 6449
1, 6433
1, 6417
1, 6417
1, 6401
1, 6401
1, 6401
1, 6369
1, 6353
1, 6385
1, 6353
1, 6353
1, 6353
1, 6417
1, 6401
1, 6401
1, 6385
1, 6369
1, 6369
1, 6337
1, 6353
1, 6353
1, 6353
1, 6369
1, 6353
1, 6337
1, 6337
1, 6321
1, 6337
1, 6273
1, 6289
1, 6273
1, 6273
1, 6241
1, 6273
1, 6257
1, 6273
1, 6257
1, 6257
1, 6257
1, 6257
1, 6241
1, 6225
1, 6209
1, 6209
1, 6225
1, 6225
1, 6257
1, 6257
1, 6241
1, 6209
1, 6177
1, 6257
1, 6161
1, 6209
1, 6177
1, 6193
1, 6193
1, 6177
1, 6177
1, 6209
1, 6241
1, 6257
1, 6257
1, 6225
1, 6209
1, 6177
1, 6209
1, 6177
1, 6161
1, 6177
1, 6177
1, 6177
1, 6209
1, 6225
1, 6209
1, 6177
1, 6177
1, 6193
1, 6177
1, 6161
1, 6209
1, 6241
1, 6209
1, 6225
1, 6193
1, 6177
1, 6193
1, 6209
1, 6273
1, 6289
1, 6369
1, 6513
1, 6529
1, 6641
1, 6737
1, 6737
1, 6721
1, 6737
1, 6785
1, 6785
1, 6849
1, 6977
1, 7009
1, 7041
1, 7153
1, 7169
1, 7233
1, 7185
1, 7169
1, 7169
1, 7185
1, 7153
1, 7169
1, 7121
1, 7137
1, 7137
1, 7105
1, 7089
1, 7185
1, 7153
1, 7121
1, 7105
1, 7137
1, 7153
1, 7137
1, 7121
1, 7137
1, 7105
1, 7105
1, 7105
1, 7105
1, 7121
1, 7137
1, 7105
1, 7105
1, 7089
1, 7073
1, 7073
1, 7057
1, 7041
1, 7089
1, 7089
1, 7153
1, 7153
1, 7137
1, 7089
1, 7073
1, 7073
1, 7185
1, 7153
1, 7153
1, 7137
1, 7121
1, 7169
1, 7185
1, 7169
1, 7137
1, 7089
1, 7121
1, 7073
1, 7105
1, 7217
1, 7201
1, 7265
1, 7281
1, 7265
1, 7281
1, 7249
1, 7233
1, 7217
1, 7185
1, 7185
1, 7217
1, 7201
1, 7233
1, 7217
1, 7201
1, 7217
1, 7233
1, 7313
1, 7489
1, 7505
1, 7585
1, 7633
1, 7633
1, 7633
1, 7665
1, 7665
1, 7633
1, 7649
1, 7617
1, 7585
1, 7601
1, 7569
1, 7569
1, 7585
1, 7665
1, 7665
1, 7633
1, 7617
1, 7585
1, 7585
1, 7617
1, 7601
1, 7601
1, 7649
1, 7697
1, 7681
1, 7649
1, 7681
1, 7681
1, 7665
1, 7633
1, 7569
1, 7617
1, 7617
1, 7633
1, 7697
1, 7665
1, 7729
1, 7745
1, 7841
1, 7905
1, 7841
1, 7905
1, 7905
1, 7905
1, 7969
1, 7969
1, 7905
1, 7953
1, 7905
1, 7969
1, 7937
1, 7937
1, 7953
1, 7921
1, 7905
1, 7937
1, 8065
1, 8049
1, 8129
1, 8194
1, 8210
1, 8226
1, 8194
1, 8210
1, 8226
1, 8226
1, 8258
1, 8242
1, 8226
1, 8194
1, 8145
1, 8113
1, 8113
1, 8081
1, 8049
1, 8049
1, 8017
1, 7985
1, 7937
1, 7937
1, 7921
1, 7905
1, 7873
1, 7841
1, 7825
1, 7793
1, 7841
1, 7809
1, 7777
1, 7777
1, 7745
1, 7697
1, 7713
1, 7713
1, 7681
1, 7681
1, 7617
1, 7617
1, 7585
1, 7569
1, 7569
1, 7569
1, 7617
1, 7553
1, 7553
1, 7521
1, 7489
1, 7457
1, 7457
1, 7441
1, 7425
1, 7393
1, 7393
1, 7329
1, 7345
1, 7313
1, 7265
1, 7265
1, 7233
1, 7233
1, 7297
1, 7281
1, 7281
1, 7297
1, 7297
1, 7265
1, 7249
1, 7265
1, 7345
1, 7297
1, 7265
1, 7233
1, 7233
1, 7217
1, 7169
1, 7201
1, 7137
1, 7121
1, 7073
1, 7073
1, 7073
1, 7089
1, 7025
1, 7057
1, 7009
1, 6993
1, 6977
1, 6977
1, 6945
1, 6961
1, 6961
1, 6961
1, 6945
1, 6929
1, 6897
1, 6817
1, 6865
1, 6849
1, 6817
1, 6801
1, 6785
1, 6769
1, 6753
1, 6753
1, 6705
1, 6593
1, 6689
1, 6753
1, 6769
1, 6753
1, 6721
1, 6721
1, 6705
1, 6641
1, 6609
1, 6657
1, 6625
1, 6641
1, 6657
1, 6593
1, 6577
1, 6577
1, 6577
1, 6561
1, 6561
1, 6497
1, 6513
1, 6529
1, 6497
1, 6513
1, 6497
1, 6513
1, 6481
1, 6481
1, 6481
1, 6513
1, 6545
1, 6529
1, 6529
1, 6577
1, 6673
1, 6657
1, 6641
1, 6625
1, 6593
1, 6593
1, 6577
1, 6561
1, 6545
1, 6529
1, 6577
1, 6561
1, 6497
1, 6481
1, 6417
1, 6433
1, 6449
1, 6481
1, 6513
1, 6465
1, 6465
1, 6417
1, 6417
1, 6417
1, 6417
1, 6433
1, 6401
1, 6369
1, 6353
1, 6369
1, 6337
1, 6337
1, 6305
1, 6337
1, 6385
1, 6337
1, 6273
1, 6257
1, 6289
1, 6337
1, 6337
1, 6289
1, 6305
1, 6257
1, 6321
1, 6321
1, 6289
1, 6273
1, 6257
1, 6241
1, 6289
1, 6289
1, 6273
1, 6257
1, 6273
1, 6305
1, 6289
1, 6289
1, 6273
1, 6273
1, 6305
1, 6305
1, 6273
1, 6289
1, 6257
1, 6289
1, 6257
1, 6305
1, 6305
1, 6289
1, 6273
1, 6273
1, 6273
1, 6273
1, 6289
1, 6273
1, 6289
1, 6241
1, 6241
1, 6257
1, 6241
1, 6257
1, 6241
1, 6305
1, 6321
1, 6289
1, 6257
1, 6273
1, 6273
1, 6289
1, 6257
1, 6273
1, 6273
1, 6273
1, 6241
1, 6241
1, 6273
1, 6225
1, 6209
1, 6241
1, 6241
1, 6225
1, 6209
1, 6209
1, 6209
1, 6241
1, 6241
1, 6209
1, 6193
1, 6225
1, 6193
1, 6177
1, 6177
1, 6193
1, 6161
1, 6193
1, 6161
1, 6161
1, 6129
1, 6145
1, 6129
1, 6145
1, 6177
1, 6145
1, 6177
1, 6177
1, 6193
1, 6193
1, 6209
1, 6209
1, 6225
1, 6225
1, 6209
1, 6193
1, 6161
1, 6241
1, 6273
1, 6273
1, 6273
1, 6257
1, 6241
1, 6241
1, 6257
1, 6289
1, 6241
1, 6225
1, 6241
1, 6241
1, 6225
1, 6241
1, 6209
1, 6209
1, 6241
1, 6225
1, 6209
1, 6241
1, 6241
1, 6257
1, 6225
1, 6225
1, 6177
1, 6193
1, 6273
1, 6289
1, 6353
1, 6353
1, 6353
1, 6369
1, 6369
1, 6369
1, 6369
1, 6385
1, 6385
1, 6401
1, 6401
1, 6433
1, 6417
1, 6465
1, 6465
1, 6673
1, 6913
1, 7089
1, 7489
1, 7537
1, 7617
1, 7601
1, 7601
1, 7601
1, 7649
1, 7665
1, 7697
1, 7697
1, 7777
1, 7825
1, 7905
1, 7937
1, 8033
1, 8049
1, 8033
1, 7969
1, 8001
1, 7969
1, 7969
1, 7921
1, 7905
1, 7889
1, 7841
1, 7873
1, 7889
1, 7889
1, 7889
1, 7969
1, 7985
1, 8049
1, 8065
1, 8145
1, 8274
1, 8290
1, 8258
1, 8242
1, 8177
1, 8177
1, 8194
1, 8242
1, 8578
1, 8658
1, 9026
1, 9122
1, 9474
1, 9570
1, 9650
1, 9730
1, 9714
1, 9666
1, 9602
1, 9554
1, 9506
1, 9474
1, 9394
1, 9362
1, 9314
1, 9250
1, 9202
1, 9170
1, 9106
1, 9042
1, 9010
1, 8978
1, 8930
1, 8914
1, 8898
1, 8866
1, 8850
1, 8770
1, 8738
1, 8706
1, 8690
1, 8658
1, 8610
1, 8578
1, 8530
1, 8482
1, 8418
1, 8402
1, 8338
1, 8338
1, 8274
1, 8258
1, 8194
1, 8177
1, 8161
1, 8097
1, 8081
1, 8065
1, 8065
1, 8017
1, 7969
1, 7969
1, 7905
1, 7937
1, 7937
1, 7905
1, 7889
1, 7873
1, 7873
1, 7841
1, 7793
1, 7793
1, 7745
1, 7729
1, 7729
1, 7681
1, 7617
1, 7633
1, 7633
1, 7617
1, 7585
1, 7553
1, 7553
1, 7521
1, 7553
1, 7489
1, 7473
1, 7457
1, 7425
1, 7425
1, 7393
1, 7377
1, 7345
1, 7329
1, 7265
1, 7265
1, 7217
1, 7201
1, 7169
1, 7137
1, 7137
1, 7121
1, 7105
1, 7073
1, 7073
1, 7089
1, 7089
1, 7057
1, 7025
1, 7009
1, 6993
1, 6977
1, 6961
1, 6945
1, 6913
1, 6945
1, 6881
1, 6865
1, 6849
1, 6849
1, 6817
1, 6817
1, 6769
1, 6785
1, 6753
1, 6753
1, 6721
1, 6721
1, 6689
1, 6705
1, 6673
1, 6641
1, 6657
1, 6641
1, 6625
1, 6625
1, 6609
1, 6609
1, 6561
1, 6561
1, 6561
1, 6529
1, 6497
1, 6481
1, 6481
1, 6497
1, 6465
1, 6449
1, 6433
1, 6433
1, 6401
1, 6433
1, 6433
1, 6401
1, 6401
1, 6385
1, 6401
1, 6401
1, 6369
1, 6369
1, 6337
1, 6321
1, 6305
1, 6305
1, 6257
1, 6289
1, 6273
1, 6273
1, 6257
1, 6241
1, 6241
1, 6209
1, 6209
1, 6193
1, 6193
1, 6225
1, 6193
1, 6177
1, 6177
1, 6177
1, 6161
1, 6145
1, 6129
1, 6129
1, 6129
1, 6145
1, 6129
1, 6113
1, 6081
1, 6097
1, 6097
1, 6097
1, 6065
1, 6081
1, 6049
1, 6049
1, 6065
1, 6065
1, 6033
1, 6049
1, 6017
1, 6017
1, 6033
1, 6001
1, 6017
1, 6033
1, 6033
1, 6065
1, 6033
1, 6033
1, 6033
1, 6049
1, 6017
1, 6033
1, 6017
1, 6001
1, 5985
1, 5985
1, 5985
1, 5985
1, 5985
1, 5969
1, 5969
1, 5953
1, 5953
1, 5937
1, 5937
1, 5905
1, 5937
1, 5921
1, 5905
1, 5921
1, 5921
1, 5921
1, 5905
1, 5905
1, 5873
1, 5889
1, 5905
1, 5905
1, 5921
1, 5889
1, 5873
1, 5873
1, 5873
1, 5873
1, 5873
1, 5841
1, 5841
1, 5825
1, 5857
1, 5841
1, 5841
1, 5857
1, 5841
1, 5825
1, 5857
1, 5841
1, 5841
1, 5825
1, 5825
1, 5841
1, 5825
1, 5825
1, 5809
1, 5841
1, 5809
1, 5825
1, 5825
1, 5825
1, 5825
1, 5809
1, 5825
1, 5825
1, 5841
1, 5857
1, 5857
1, 5857
1, 5857
1, 5825
1, 5841
1, 5841
1, 5841
1, 5841
1, 5825
1, 5825
1, 5841
1, 5793
1, 5841
1, 5857
1, 5889
1, 5873
1, 5873
1, 5873
1, 5905
1, 5969
1, 6033
1, 6145
1, 6225
1, 6289
1, 6177
1, 6209
1, 6209
1, 6273
1, 6241
1, 6209
1, 6305
1, 6305
1, 6353
1, 6353
1, 6449
1, 6625
1, 6625
1, 6625
1, 6609
1, 6625
1, 6673
1, 6657
1, 6673
1, 6673
1, 6641
1, 6625
1, 6593
1, 6593
1, 6577
1, 6561
1, 6561
1, 6529
1, 6545
1, 6577
1, 6625
1, 6689
1, 6689
1, 6689
1, 6689
1, 6657
1, 6689
1, 6657
1, 6737
1, 6753
1, 6705
1, 6721
1, 6721
1, 6721
1, 6785
1, 6913
1, 6945
1, 7121
1, 7297
1, 7345
1, 7297
1, 7297
1, 7249
1, 7233
1, 7265
1, 7249
1, 7233
1, 7217
1, 7185
1, 7169
1, 7137
1, 7121
1, 7105
1, 7089
1, 7041
1, 7057
1, 7041
1, 7025
1, 6993
1, 7025
1, 6993
1, 7009
1, 6977
1, 6993
1, 6977
1, 6961
1, 6961
1, 6993
1, 7009
1, 7009
1, 7009
1, 7041
1, 7089
1, 7185
1, 7217
1, 7249
1, 7233
1, 7233
1, 7217
1, 7185
1, 7185
1, 7185
1, 7169
1, 7201
1, 7169
1, 7153
1, 7137
1, 7089
1, 7105
1, 7073
1, 7041
1, 7009
1, 7057
1, 7041
1, 7073
1, 7105
1, 7169
1, 7249
1, 7233
1, 7249
1, 7249
1, 7217
1, 7185
1, 7201
1, 7201
1, 7185
1, 7169
1, 7137
1, 7137
1, 7121
1, 7105
1, 7089
1, 7089
1, 7121
1, 7185
1, 7201
1, 7169
1, 7137
1, 7153
1, 7153
1, 7121
1, 7105
1, 7089
1, 7073
1, 7057
1, 7025
1, 7009
1, 6993
1, 6961
1, 6961
1, 6945
1, 6929
1, 7009
1, 6993
1, 6977
1, 6945
1, 6961
1, 6929
1, 6913
1, 6897
1, 6865
1, 6833
1, 6817
1, 6801
1, 6769
1, 6753
1, 6737
1, 6705
1, 6705
1, 6689
1, 6705
1, 6641
1, 6673
1, 6673
1, 6641
1, 6641
1, 6641
1, 6673
1, 6705
1, 6705
1, 6689
1, 6673
1, 6657
1, 6673
1, 6641
1, 6641
1, 6641
1, 6593
1, 6609
1, 6593
1, 6593
1, 6609
1, 6561
1, 6577
1, 6577
1, 6561
1, 6513
1, 6481
1, 6481
1, 6449
1, 6449
1, 6433
1, 6401
1, 6417
1, 6417
1, 6417
1, 6369
1, 6369
1, 6417
1, 6449
1, 6449
1, 6497
1, 6481
1, 6465
1, 6433
1, 6417
1, 6417
1, 6401
1, 6385
1, 6369
1, 6385
1, 6369
1, 6337
1, 6305
1, 6321
1, 6273
1, 6273
1, 6257
1, 6241
1, 6257
1, 6241
1, 6193
1, 6241
1, 6273
1, 6321
1, 6337
1, 6369
1, 6321
1, 6289
1, 6289
1, 6273
1, 6273
1, 6225
1, 6241
1, 6241
1, 6241
1, 6209
1, 6193
1, 6209
1, 6193
1, 6193
1, 6209
1, 6241
1, 6193
1, 6193
1, 6177
1, 6161
1, 6177
1, 6161
1, 6161
1, 6177
1, 6193
1, 6177
1, 6177
1, 6145
1, 6161
1, 6145
1, 6129
1, 6145
1, 6097
1, 6097
1, 6129
1, 6161
1, 6145
1, 6129
1, 6145
1, 6145
1, 6145
1, 6161
1, 6161
1, 6145
1, 6145
1, 6145
1, 6145
1, 6193
1, 6145
1, 6177
1, 6145
1, 6145
1, 6145
1, 6145
1, 6129
1, 6129
1, 6129
1, 6145
1, 6161
1, 6145
1, 6145
1, 6145
1, 6097
1, 6145
1, 6129
1, 6113
1, 6129
1, 6081
1, 6081
1, 6081
1, 6113
1, 6097
1, 6097
1, 6049
1, 6081
1, 6065
1, 6049
1, 6081
1, 6033
1, 6081
1, 6033
1, 6049
1, 6049
1, 6065
1, 6017
1, 6033
1, 6017
1, 6017
1, 6049
1, 6065
1, 6081
1, 6081
1, 6081
1, 6081
1, 6081
1, 6113
1, 6065
1, 6097
1, 6081
1, 6097
1, 6097
1, 6145
1, 6145
1, 6145
1, 6113
1, 6097
1, 6129
1, 6129
1, 6145
1, 6145
1, 6113
1, 6145
1, 6129
1, 6145
1, 6145
1, 6177
1, 6225
1, 6385
1, 6369
1, 6369
1, 6369
1, 6353
1, 6369
1, 6369
1, 6401
1, 6449
1, 6449
1, 6513
1, 6497
1, 6481
1, 6497
1, 6529
1, 6513
1, 6497
1, 6545
1, 6561
1, 6593
1, 6625
1, 6689
1, 6705
1, 6753
1, 6849
1, 6913
1, 6913
1, 6881
1, 6881
1, 6945
1, 7009
1, 6945
1, 6945
1, 7105
1, 7137
1, 7313
1, 7409
1, 7361
1, 7409
1, 7489
1, 7633
1, 7649
1, 7681
1, 7617
1, 7585
1, 7697
1, 7745
1, 7793
1, 7761
1, 7777
1, 7889
1, 7969
1, 8226
1, 8322
1, 8674
1, 8706
1, 8706
1, 8642
1, 8738
1, 8786
1, 8738
1, 8802
1, 8818
1, 8834
1, 8802
1, 8786
1, 8834
1, 8882
1, 8866
1, 8818
1, 8770
1, 8770
1, 8738
1, 8754
1, 8818
1, 8802
1, 8786
1, 8802
1, 8898
1, 9010
1, 9058
1, 9394
1, 9506
1, 9730
1, 9794
1, 10018
1, 10050
1, 10018
1, 10034
1, 9986
1, 9954
1, 9858
1, 9794
1, 9746
1, 9682
1, 9634
1, 9586
1, 9538
1, 9490
1, 9426
1, 9378
1, 9346
1, 9282
1, 9218
1, 9170
1, 9122
1, 9122
1, 9026
1, 9010
1, 8978
1, 8946
1, 8898
1, 8882
1, 8898
1, 8834
1, 8786
1, 8770
1, 8722
1, 8690
1, 8674
1, 8642
1, 8610
1, 8626
1, 8562
1, 8530
1, 8546
1, 8546
1, 8514
1, 8514
1, 8514
1, 8482
1, 8450
1, 8434
1, 8466
1, 8450
1, 8402
1, 8354
1, 8338
1, 8338
1, 8258
1, 8242
1, 8210
1, 8194
1, 8145
1, 8113
1, 8097
1, 8049
1, 8033
1, 7985
1, 7969
1, 7921
1, 7873
1, 7889
1, 7873
1, 7857
1, 7777
1, 7761
1, 7745
1, 7697
1, 7681
1, 7633
1, 7617
1, 7617
1, 7617
1, 7585
1, 7569
1, 7521
1, 7505
1, 7505
1, 7441
1, 7473
1, 7409
1, 7393
1, 7345
1, 7329
1, 7329
1, 7297
1, 7297
1, 7249
1, 7233
1, 7201
1, 7217
1, 7169
1, 7153
1, 7121
1, 7105
1, 7137
1, 7073
1, 7057
1, 7025
1, 7041
1, 7041
1, 7009
1, 6993
1, 6993
1, 6977
1, 6977
1, 6945
1, 6913
1, 6881
1, 6865
1, 6865
1, 6897
1, 6833
1, 6817
1, 6801
1, 6785
1, 6785
1, 6753
1, 6737
1, 6721
1, 6705
1, 6689
1, 6689
1, 6657
1, 6625
1, 6641
1, 6625
1, 6657
1, 6625
1, 6593
1, 6609
1, 6577
1, 6593
1, 6593
1, 6561
1, 6561
1, 6529
1, 6529
1, 6513
1, 6513
1, 6513
1, 6497
1, 6481
1, 6497
1, 6449
1, 6433
1, 6417
1, 6401
1, 6417
1, 6385
1, 6369
1, 6401
1, 6369
1, 6369
1, 6369
1, 6369
1, 6353
1, 6337
1, 6321
1, 6353
1, 6321
1, 6305
1, 6305
1, 6273
1, 6273
1, 6257
1, 6257
1, 6257
1, 6241
1, 6257
1, 6289
1, 6273
1, 6273
1, 6257
1, 6225
1, 6257
1, 6209
1, 6209
1, 6225
1, 6209
1, 6209
1, 6193
1, 6209
1, 6193
1, 6177
1, 6193
1, 6193
1, 6193
1, 6177
1, 6209
1, 6241
1, 6273
1, 6225
1, 6241
1, 6225
1, 6209
1, 6209
1, 6209
1, 6225
1, 6193
1, 6177
1, 6193
1, 6225
1, 6209
1, 6289
1, 6337
1, 6337
1, 6369
1, 6305
1, 6305
1, 6289
1, 6289
1, 6305
1, 6289
1, 6273
1, 6289
1, 6257
1, 6273
1, 6257
1, 6273
1, 6241
1, 6225
1, 6241
1, 6257
1, 6209
1, 6193
1, 6209
1, 6209
1, 6225
1, 6241
1, 6225
1, 6209
1, 6209
1, 6193
1, 6177
1, 6161
1, 6177
1, 6161
1, 6177
1, 6193
1, 6145
1, 6145
1, 6161
1, 6177
1, 6193
1, 6193
1, 6209
1, 6193
1, 6177
1, 6193
1, 6161
1, 6177
1, 6161
1, 6209
1, 6193
1, 6209
1, 6177
1, 6161
1, 6161
1, 6145
1, 6145
1, 6161
1, 6145
1, 6145
1, 6145
1, 6129
1, 6145
1, 6145
1, 6113
1, 6113
1, 6113
1, 6129
1, 6113
1, 6145
1, 6113
1, 6097
1, 6113
1, 6113
1, 6097
1, 6145
1, 6177
1, 6161
1, 6161
1, 6177
1, 6177
1, 6161
1, 6145
1, 6177
1, 6145
1, 6145
1, 6129
1, 6145
1, 6161
1, 6161
1, 6193
1, 6225
1, 6257
1, 6305
1, 6337
1, 6433
1, 6465
1, 6449
1, 6449
1, 6529
1, 6481
1, 6497
1, 6497
1, 6481
1, 6481
1, 6545
1, 6593
1, 6593
1, 6657
1, 6689
1, 6721
1, 6737
1, 6865
1, 6897
1, 6881
1, 6881
1, 6849
1, 6849
1, 6849
1, 6817
1, 6817
1, 6817
1, 6817
1, 6833
1, 6833
1, 6801
1, 6785
1, 6817
1, 6801
1, 6801
1, 6833
1, 6833
1, 6849
1, 6945
1, 6881
1, 6945
1, 6961
1, 7009
1, 6977
1, 6993
1, 7009
1, 7073
1, 7089
1, 7073
1, 7057
1, 7057
1, 7041
1, 7025
1, 7025
1, 7057
1, 7073
1, 7057
1, 7025
1, 7025
1, 7041
1, 7041
1, 7009
1, 7025
1, 6977
1, 6977
1, 6993
1, 7009
1, 6993
1, 6977
1, 6961
1, 7041
1, 7073
1, 7089
1, 7169
1, 7217
1, 7249
1, 7201
1, 7201
1, 7169
1, 7153
1, 7105
1, 7089
1, 7105
1, 7089
1, 7057
1, 7073
1, 7041
1, 7025
1, 6993
1, 6993
1, 6977
1, 7057
1, 7169
1, 7201
1, 7489
1, 7601
1, 7601
1, 7633
1, 7633
1, 7633
1, 7681
1, 7649
1, 7601
1, 7585
1, 7569
1, 7633
1, 7617
1, 7585
1, 7569
1, 7521
1, 7505
1, 7457
1, 7441
1, 7409
1, 7377
1, 7345
1, 7377
1, 7297
1, 7281
1, 7265
1, 7249
1, 7297
1, 7297
1, 7281
1, 7345
1, 7345
1, 7329
1, 7329
1, 7297
1, 7281
1, 7297
1, 7313
1, 7313
1, 7361
1, 7361
1, 7329
1, 7329
1, 7297
1, 7297
1, 7281
1, 7265
1, 7201
1, 7185
1, 7153
1, 7169
1, 7185
1, 7121
1, 7137
1, 7121
1, 7073
1, 7057
1, 7025
1, 7025
1, 7009
1, 6977
1, 6945
1, 6929
1, 6961
1, 6945
1, 6929
1, 6913
1, 6881
1, 6881
1, 6849
1, 6849
1, 6817
1, 6881
1, 6849
1, 6833
1, 6833
1, 6817
1, 6785
1, 6753
1, 6737
1, 6721
1, 6705
1, 6689
1, 6721
1, 6705
1, 6689
1, 6673
1, 6673
1, 6689
1, 6689
1, 6689
1, 6721
1, 6705
1, 6721
1, 6801
1, 6785
1, 6769
1, 6753
1, 6737
1, 6753
1, 6721
1, 6721
1, 6673
1, 6689
1, 6657
1, 6625
1, 6625
1, 6641
1, 6609
1, 6593
1, 6625
1, 6593
1, 6561
1, 6545
1, 6513
1, 6529
1, 6529
1, 6513
1, 6529
1, 6513
1, 6497
1, 6497
1, 6545
1, 6577
1, 6641
1, 6625
1, 6641
1, 6625
1, 6609
1, 6561
1, 6577
1, 6561
1, 6545
1, 6545
1, 6513
1, 6513
1, 6481
1, 6497
1, 6497
1, 6481
1, 6465
1, 6433
1, 6433
1, 6417
1, 6433
1, 6417
1, 6401
1, 6401
1, 6353
1, 6353
1, 6385
1, 6369
1, 6369
1, 6353
1, 6337
1, 6321
1, 6321
1, 6337
1, 6321
1, 6289
1, 6337
1, 6305
1, 6305
1, 6305
1, 6289
1, 6257
1, 6225
1, 6241
1, 6241
1, 6225
1, 6209
1, 6193
1, 6193
1, 6209
1, 6209
1, 6177
1, 6177
1, 6209
1, 6193
1, 6209
1, 6177
1, 6209
1, 6177
1, 6177
1, 6177
1, 6161
1, 6145
1, 6145
1, 6145
1, 6145
1, 6177
1, 6145
1, 6161
1, 6145
1, 6145
1, 6129
1, 6113
1, 6129
1, 6097
1, 6129
1, 6113
1, 6129
1, 6129
1, 6113
1, 6113
1, 6097
1, 6113
1, 6097
1, 6065
1, 6065
1, 6065
1, 6049
1, 6065
1, 6113
1, 6097
1, 6065
1, 6065
1, 6049
1, 6017
1, 6033
1, 6001
1, 6065
1, 6065
1, 6065
1, 6065
1, 6049
1, 6113
1, 6145
1, 6177
1, 6273
1, 6289
1, 6273
1, 6289
1, 6305
1, 6321
1, 6305
1, 6321
1, 6305
1, 6337
1, 6337
1, 6353
1, 6369
1, 6385
1, 6385
1, 6385
1, 6401
1, 6401
1, 6449
1, 6449
1, 6497
1, 6481
1, 6497
1, 6497
1, 6513
1, 6561
1, 6561
1, 6657
1, 6673
1, 6785
1, 6817
1, 6801
1, 6849
1, 6865
1, 6849
1, 6977
1, 7057
1, 7057
1, 7009
1, 7041
1, 7073
1, 7121
1, 7169
1, 7217
1, 7249
1, 7265
1, 7233
1, 7249
1, 7297
1, 7361
1, 7425
1, 7457
1, 7457
1, 7489
1, 7521
1, 7633
1, 7649
1, 7697
1, 7681
1, 7713
1, 7713
1, 7713
1, 7729
1, 7761
1, 7745
1, 7761
1, 7793
1, 7873
1, 7921
1, 8001
1, 8065
1, 8113
1, 8145
1, 8113
1, 8097
1, 8065
1, 8033
1, 8081
1, 8129
1, 8177
1, 8306
1, 8290
1, 8258
1, 8242
1, 8210
1, 8210
1, 8210
1, 8210
1, 8418
1, 8450
1, 8626
1, 8722
1, 8674
1, 8626
1, 8594
1, 8562
1, 8530
1, 8466
1, 8434
1, 8402
1, 8370
1, 8338
1, 8322
1, 8274
1, 8242
1, 8194
1, 8161
1, 8129
1, 8097
1, 8081
1, 8097
1, 8049
1, 8065
1, 8161
1, 8354
1, 8514
1, 8562
1, 8946
1, 9010
1, 8994
1, 9042
1, 9010
1, 9010
1, 9106
1, 9090
1, 9058
1, 9026
1, 8978
1, 8962
1, 8882
1, 8866
1, 8834
1, 8770
1, 8754
1, 8738
1, 8706
1, 8690
1, 8658
1, 8626
1, 8594
1, 8578
1, 8514
1, 8482
1, 8466
1, 8434
1, 8386
1, 8370
1, 8322
1, 8322
1, 8290
1, 8258
1, 8226
1, 8226
1, 8161
1, 8145
1, 8113
1, 8081
1, 8065
1, 8017
1, 8017
1, 8001
1, 8033
1, 8065
1, 8049
1, 8049
1, 8017
1, 7969
1, 7969
1, 7953
1, 7921
1, 7937
1, 7905
1, 7873
1, 7857
1, 7841
1, 7825
1, 7793
1, 7761
1, 7729
1, 7729
1, 7681
1, 7665
1, 7617
1, 7633
1, 7601
1, 7569
1, 7537
1, 7553
1, 7521
1, 7521
1, 7569
1, 7585
1, 7553
1, 7521
1, 7505
1, 7473
1, 7457
1, 7425
1, 7393
1, 7377
1, 7377
1, 7377
1, 7361
1, 7313
1, 7297
1, 7265
1, 7281
1, 7233
1, 7217
1, 7185
1, 7169
1, 7153
1, 7153
1, 7137
1, 7121
1, 7105
1, 7089
1, 7073
1, 7073
1, 7073
1, 7025
1, 7009
1, 6961
1, 6945
1, 6929
1, 6913
1, 6913
1, 6929
1, 6897
1, 6881
1, 6865
1, 6833
1, 6833
1, 6817
1, 6817
1, 6785
1, 6769
1, 6753
1, 6721
1, 6721
1, 6689
1, 6657
1, 6657
1, 6689
1, 6689
1, 6721
1, 6689
1, 6657
1, 6657
1, 6625
1, 6625
1, 6641
1, 6641
1, 6593
1, 6577
1, 6545
1, 6545
1, 6529
1, 6529
1, 6513
1, 6513
1, 6529
1, 6545
1, 6545
1, 6545
1, 6529
1, 6513
1, 6513
1, 6497
1, 6497
1, 6465
1, 6513
1, 6497
1, 6497
1, 6545
1, 6609
1, 6625
1, 6625
1, 6577
1, 6577
1, 6561
1, 6545
1, 6545
1, 6545
1, 6529
1, 6529
1, 6513
1, 6529
1, 6497
1, 6497
1, 6465
1, 6481
1, 6481
1, 6481
1, 6449
1, 6449
1, 6449
1, 6465
1, 6449
1, 6433
1, 6449
1, 6433
1, 6449
1, 6433
1, 6417
1, 6401
1, 6385
1, 6385
1, 6369
1, 6369
1, 6353
1, 6337
1, 6337
1, 6305
1, 6305
1, 6305
1, 6321
1, 6289
1, 6305
1, 6289
1, 6273
1, 6257
1, 6289
1, 6305
1, 6289
1, 6289
1, 6273
1, 6241
1, 6241
1, 6225
1, 6241
1, 6225
1, 6209
1, 6177
1, 6193
1, 6177
1, 6177
1, 6161
1, 6145
1, 6161
1, 6177
1, 6225
1, 6177
1, 6161
1, 6177
1, 6161
1, 6145
1, 6129
1, 6161
1, 6161
1, 6129
1, 6129
1, 6161
1, 6129
1, 6129
1, 6177
1, 6161
1, 6161
1, 6161
1, 6161
1, 6145
1, 6193
1, 6241
1, 6273
1, 6241
1, 6257
1, 6257
1, 6289
1, 6289
1, 6305
1, 6305
1, 6353
1, 6353
1, 6337
1, 6401
1, 6561
1, 6577
1, 6833
1, 6977
1, 6977
1, 7025
1, 7137
1, 7137
1, 7153
1, 7185
1, 7329
1, 7361
1, 7409
1, 7505
1, 7505
1, 7473
1, 7553
1, 7537
1, 7505
1, 7473
1, 7505
1, 7473
1, 7441
1, 7457
1, 7457
1, 7441
1, 7425
1, 7473
1, 7537
1, 7537
1, 7489
1, 7489
1, 7457
1, 7505
1, 7473
1, 7505
1, 7473
1, 7505
1, 7473
1, 7473
1, 7441
1, 7441
1, 7377
1, 7361
1, 7329
1, 7297
1, 7281
1, 7281
1, 7249
1, 7233
1, 7233
1, 7185
1, 7201
1, 7185
1, 7137
1, 7137
1, 7105
1, 7105
1, 7105
1, 7089
1, 7073
1, 7089
1, 7153
1, 7153
1, 7153
1, 7105
1, 7057
1, 7041
1, 6993
1, 7025
1, 7025
1, 7009
1, 6945
1, 6993
1, 6977
1, 6993
1, 6977
1, 6961
1, 6961
1, 6993
1, 6993
1, 6961
1, 6929
1, 6945
1, 6961
1, 6897
1, 6881
1, 6881
1, 6881
1, 6881
1, 6929
1, 6913
1, 6913
1, 6865
1, 6849
1, 6913
1, 6929
1, 6897
1, 6865
1, 6817
1, 6801
1, 6817
1, 6833
1, 6817
1, 6801
1, 6817
1, 6801
1, 6785
1, 6817
1, 6849
1, 6865
1, 6897
1, 6897
1, 6881
1, 6833
1, 6881
1, 6833
1, 6817
1, 6785
1, 6769
1, 6753
1, 6785
1, 6801
1, 6769
1, 6865
1, 6865
1, 6897
1, 6897
1, 6881
1, 6849
1, 6785
1, 6817
1, 6785
1, 6785
1, 6705
1, 6689
1, 6673
1, 6689
1, 6689
1, 6641
1, 6689
1, 6609
1, 6609
1, 6625
1, 6561
1, 6577
1, 6577
1, 6529
1, 6529
1, 6481
1, 6513
1, 6529
1, 6497
1, 6529
1, 6497
1, 6465
1, 6465
1, 6417
1, 6433
1, 6417
1, 6401
1, 6449
1, 6417
1, 6401
1, 6417
1, 6417
1, 6369
1, 6337
1, 6337
1, 6369
1, 6433
1, 6449
1, 6433
1, 6433
1, 6417
1, 6417
1, 6401
1, 6417
1, 6369
1, 6337
1, 6321
1, 6305
1, 6353
1, 6321
1, 6353
1, 6353
1, 6353
1, 6401
1, 6385
1, 6305
1, 6305
1, 6289
1, 6257
1, 6257
1, 6241
1, 6241
1, 6257
1, 6257
1, 6241
1, 6241
1, 6209
1, 6193
1, 6177
1, 6225
1, 6161
1, 6177
1, 6161
1, 6113
1, 6145
1, 6161
1, 6161
1, 6145
1, 6145
1, 6081
1, 6129
1, 6081
1, 6049
1, 6033
1, 6081
1, 6065
1, 6065
1, 6065
1, 6049
1, 6033
1, 6033
1, 6017
1, 6017
1, 5985
1, 5969
1, 5953
1, 5969
1, 5953
1, 5953
1, 5969
1, 5985
1, 5921
1, 5921
1, 5969
1, 5953
1, 5985
1, 6001
1, 5985
1, 5985
1, 5985
1, 5985
1, 6001
1, 5969
1, 5985
1, 6017
1, 6017
1, 5985
1, 5985
1, 5969
1, 5985
1, 5985
1, 5953
1, 5969
1, 5985
1, 6049
1, 6017
1, 6081
1, 6081
1, 6097
1, 6113
1, 6097
1, 6081
1, 6065
1, 6065
1, 6065
1, 6097
1, 6113
1, 6097
1, 6129
1, 6129
1, 6097
1, 6129
1, 6129
1, 6097
1, 6097
1, 6145
1, 6145
1, 6129
1, 6129
1, 6145
1, 6145
1, 6145
1, 6161
1, 6145
1, 6161
1, 6177
1, 6161
1, 6145
1, 6145
1, 6161
1, 6177
1, 6193
1, 6257
1, 6417
1, 6465
1, 6449
1, 6481
1, 6561
1, 6593
1, 6817
1, 6881
1, 6977
1, 6977
1, 6961
1, 6961
1, 6945
1, 6913
1, 6977
1, 7073
1, 7089
1, 7185
1, 7201
1, 7201
1, 7185
1, 7233
1, 7169
1, 7233
1, 7217
1, 7233
1, 7377
1, 7441
1, 7713
1, 7777
1, 8129
1, 8434
1, 8466
1, 8658
1, 8674
1, 8658
1, 8674
1, 8706
1, 8786
1, 8834
1, 8898
1, 8946
1, 8898
1, 8898
1, 9042
1, 9090
1, 9026
1, 8994
1, 8962
1, 8930
1, 8946
1, 8930
1, 8882
1, 9058
1, 9106
1, 9154
1, 9218
1, 9250
1, 9202
1, 9218
1, 9202
1, 9186
1, 9186
1, 9234
1, 9250
1, 9282
1, 9202
1, 9154
1, 9218
1, 9218
1, 9234
1, 9266
1, 9314
1, 9394
1, 9474
1, 9410
1, 9394
1, 9378
1, 9346
1, 9298
1, 9250
1, 9250
1, 9202
1, 9202
1, 9138
1, 9090
1, 9026
1, 8994
1, 8962
1, 8930
1, 8898
1, 8834
1, 8802
1, 8770
1, 8722
1, 8674
1, 8658
1, 8610
1, 8562
1, 8530
1, 8482
1, 8450
1, 8418
1, 8450
1, 8466
1, 8482
1, 8466
1, 8466
1, 8530
1, 8658
1, 8690
1, 8882
1, 9058
1, 9026
1, 8994
1, 8978
1, 8994
1, 8946
1, 8914
1, 8866
1, 8818
1, 8754
1, 8738
1, 8722
1, 8706
1, 8674
1, 8610
1, 8578
1, 8546
1, 8562
1, 8546
1, 8514
1, 8498
1, 8514
1, 8466
1, 8418
1, 8386
1, 8322
1, 8322
1, 8274
1, 8274
1, 8290
1, 8274
1, 8258
1, 8194
1, 8210
1, 8161
1, 8113
1, 8129
1, 8129
1, 8097
1, 8049
1, 8001
1, 7985
1, 7937
1, 7921
1, 7873
1, 7841
1, 7841
1, 7793
1, 7777
1, 7745
1, 7713
1, 7697
1, 7681
1, 7633
1, 7649
1, 7601
1, 7569
1, 7537
1, 7521
1, 7505
1, 7457
1, 7441
1, 7425
1, 7409
1, 7425
1, 7457
1, 7441
1, 7441
1, 7409
1, 7409
1, 7377
1, 7345
1, 7297
1, 7281
1, 7281
1, 7233
1, 7217
1, 7201
1, 7185
1, 7185
1, 7153
1, 7153
1, 7105
1, 7073
1, 7073
1, 7041
1, 7025
1, 7009
1, 7009
1, 7009
1, 6945
1, 6913
1, 6913
1, 6897
1, 6929
1, 6913
1, 6881
1, 6881
1, 6865
1, 6881
1, 6881
1, 6849
1, 6849
1, 6817
1, 6817
1, 6785
1, 6785
1, 6801
1, 6769
1, 6801
1, 6785
1, 6785
1, 6769
1, 6753
1, 6737
1, 6705
1, 6689
1, 6689
1, 6657
1, 6657
1, 6641
1, 6609
1, 6609
1, 6609
1, 6625
1, 6577
1, 6545
1, 6561
1, 6561
1, 6513
1, 6513
1, 6497
1, 6529
1, 6513
1, 6481
1, 6465
1, 6449
1, 6449
1, 6433
1, 6401
1, 6401
1, 6385
1, 6369
1, 6369
1, 6385
1, 6369
1, 6401
1, 6401
1, 6513
1, 6657
1, 6641
1, 6673
1, 6657
1, 6641
1, 6657
1, 6625
1, 6609
1, 6641
1, 6625
1, 6657
1, 6609
1, 6593
1, 6577
1, 6609
1, 6561
1, 6545
1, 6545
1, 6513
1, 6497
1, 6513
1, 6529
1, 6513
1, 6497
1, 6481
1, 6465
1, 6465
1, 6497
1, 6465
1, 6449
1, 6497
1, 6497
1, 6481
1, 6465
1, 6465
1, 6497
1, 6497
1, 6497
1, 6513
1, 6513
1, 6497
1, 6513
1, 6513
1, 6545
1, 6529
1, 6529
1, 6545
1, 6561
1, 6545
1, 6513
1, 6513
1, 6481
1, 6513
1, 6529
1, 6529
1, 6513
1, 6513
1, 6545
1, 6593
1, 6577
1, 6561
1, 6545
1, 6513
1, 6529
1, 6513
1, 6497
1, 6497
1, 6513
1, 6497
1, 6481
1, 6465
1, 6465
1, 6465
1, 6449
1, 6417
1, 6401
1, 6385
1, 6385
1, 6385
1, 6369
1, 6353
1, 6353
1, 6353
1, 6337
1, 6337
1, 6321
1, 6305
1, 6305
1, 6305
1, 6337
1, 6337
1, 6337
1, 6321
1, 6321
1, 6337
1, 6337
1, 6353
1, 6353
1, 6321
1, 6321
1, 6305
1, 6289
1, 6289
1, 6273
1, 6257
1, 6241
1, 6241
1, 6225
1, 6209
1, 6209
1, 6177
1, 6193
1, 6225
1, 6225
1, 6225
1, 6209
1, 6209
1, 6193
1, 6209
1, 6289
1, 6289
1, 6289
1, 6273
1, 6257
1, 6241
1, 6225
1, 6241
1, 6241
1, 6225
1, 6193
1, 6193
1, 6177
1, 6193
1, 6177
1, 6209
1, 6209
1, 6209
1, 6209
1, 6225
1, 6193
1, 6193
1, 6193
1, 6225
1, 6209
1, 6193
1, 6177
1, 6193
1, 6177
1, 6193
1, 6177
1, 6209
1, 6193
1, 6177
1, 6209
1, 6177
1, 6193
1, 6209
1, 6193
1, 6289
1, 6305
1, 6321
1, 6321
1, 6305
1, 6289
1, 6273
1, 6305
1, 6273
1, 6273
1, 6273
1, 6257
1, 6257
1, 6273
1, 6273
1, 6321
1, 6385
1, 6353
1, 6337
1, 6353
1, 6353
1, 6385
1, 6369
1, 6401
1, 6385
1, 6353
1, 6353
1, 6353
1, 6337
1, 6337
1, 6337
1, 6337
1, 6417
1, 6433
1, 6513
1, 6609
1, 6593
1, 6593
1, 6561
1, 6545
1, 6529
1, 6545
1, 6561
1, 6577
1, 6641
1, 6641
1, 6657
1, 6641
1, 6625
1, 6625
1, 6609
1, 6625
1, 6593
1, 6561
1, 6593
1, 6545
1, 6577
1, 6545
1, 6577
1, 6609
1, 6593
1, 6577
1, 6561
1, 6561
1, 6593
1, 6641
1, 6593
1, 6673
1, 6673
1, 6657
1, 6641
1, 6641
1, 6641
1, 6641
1, 6641
1, 6609
1, 6593
1, 6625
1, 6705
1, 6673
1, 6657
1, 6673
1, 6673
1, 6673
1, 6673
1, 6657
1, 6657
1, 6641
1, 6641
1, 6625
1, 6673
1, 6609
1, 6625
1, 6673
1, 6689
1, 6673
1, 6641
1, 6625
1, 6609
1, 6593
1, 6593
1, 6593
1, 6577
1, 6577
1, 6577
1, 6545
1, 6545
1, 6513
1, 6561
1, 6529
1, 6513
1, 6481
1, 6497
1, 6481
1, 6497
1, 6497
1, 6465
1, 6433
1, 6449
1, 6417
1, 6385
1, 6401
1, 6369
1, 6369
1, 6353
1, 6337
1, 6353
1, 6337
1, 6337
1, 6337
1, 6337
1, 6321
1, 6321
1, 6321
1, 6289
1, 6369
1, 6529
1, 6609
1, 6593
1, 6641
1, 6705
1, 6689
1, 6689
1, 6705
1, 6801
1, 6881
1, 6817
1, 6849
1, 6801
1, 6801
1, 6817
1, 6769
1, 6769
1, 6785
1, 6817
1, 6785
1, 6785
1, 6753
1, 6753
1, 6737
1, 6705
1, 6705
1, 6705
1, 6689
1, 6673
1, 6705
1, 6785
1, 6737
1, 6721
1, 6737
1, 6737
1, 6769
1, 6737
1, 6737
1, 6721
1, 6689
1, 6753
1, 6785
1, 6737
1, 6721
1, 6721
1, 6721
1, 6721
1, 6689
1, 6673
1, 6657
1, 6641
1, 6673
1, 6657
1, 6657
1, 6657
1, 6657
1, 6625
1, 6593
1, 6593
1, 6561
1, 6545
1, 6513
1, 6529
1, 6497
1, 6497
1, 6481
1, 6465
1, 6497
1, 6529
1, 6481
1, 6529
1, 6497
1, 6465
1, 6481
1, 6433
1, 6417
1, 6433
1, 6449
1, 6465
1, 6481
1, 6433
1, 6433
1, 6401
1, 6401
1, 6353
1, 6369
1, 6353
1, 6337
1, 6337
1, 6321
1, 6321
1, 6353
1, 6433
1, 6401
1, 6385
1, 6369
1, 6369
1, 6353
1, 6305
1, 6321
1, 6305
1, 6305
1, 6321
1, 6305
1, 6289
1, 6273
1, 6273
1, 6273
1, 6241
1, 6241
1, 6241
1, 6193
1, 6177
1, 6177
1, 6177
1, 6145
1, 6161
1, 6145
1, 6129
1, 6129
1, 6113
1, 6113
1, 6129
1, 6097
1, 6145
1, 6177
1, 6145
1, 6145
1, 6161
1, 6081
1, 6097
1, 6081
1, 6081
1, 6081
1, 6065
1, 6129
1, 6161
1, 6177
1, 6145
1, 6145
1, 6161
1, 6129
1, 6161
1, 6129
1, 6161
1, 6113
1, 6129
1, 6145
1, 6145
1, 6161
1, 6177
1, 6177
1, 6193
1, 6161
1, 6161
1, 6177
1, 6273
1, 6273
1, 6241
1, 6241
1, 6209
1, 6241
1, 6241
1, 6241
1, 6273
1, 6337
1, 6289
1, 6321
1, 6257
1, 6257
1, 6289
1, 6305
1, 6305
1, 6273
1, 6273
1, 6257
1, 6257
1, 6225
1, 6209
1, 6241
1, 6209
1, 6193
1, 6193
1, 6209
1, 6209
1, 6209
1, 6209
1, 6209
1, 6209
1, 6241
1, 6257
1, 6273
1, 6241
1, 6273
1, 6257
1, 6241
1, 6225
1, 6241
1, 6241
1, 6273
1, 6353
1, 6385
1, 6433
1, 6449
1, 6465
1, 6561
1, 6609
1, 6689
1, 6689
1, 6817
1, 6865
1, 7105
1, 7233
1, 7441
1, 7489
1, 7553
1, 7585
1, 7617
1, 7617
1, 7633
1, 7601
1, 7585
1, 7569
1, 7617
1, 7585
1, 7601
1, 7617
1, 7585
1, 7601
1, 7585
1, 7585
1, 7585
1, 7601
1, 7649
1, 7665
1, 7649
1, 7745
1, 7793
1, 7953
1, 8049
1, 8033
1, 8017
1, 8017
1, 8001
1, 7985
1, 7969
1, 7985
1, 8081
1, 8129
1, 8242
1, 8210
1, 8210
1, 8194
1, 8194
1, 8194
1, 8161
1, 8129
1, 8161
1, 8210
1, 8161
1, 8161
1, 8161
1, 8145
1, 8113
1, 8049
1, 8033
1, 8001
1, 7969
1, 7953
1, 7905
1, 7873
1, 7841
1, 7793
1, 7777
1, 7729
1, 7729
1, 7681
1, 7681
1, 7633
1, 7633
1, 7617
1, 7585
1, 7569
1, 7537
1, 7521
1, 7489
1, 7569
1, 7553
1, 7793
1, 7953
1, 8226
1, 8210
1, 8177
1, 8226
1, 8210
1, 8210
1, 8129
1, 8113
1, 8081
1, 8049
1, 8097
1, 8097
1, 8065
1, 8049
1, 8049
1, 8033
1, 8001
1, 8081
1, 8145
1, 8129
1, 8097
1, 8145
1, 8113
1, 8065
1, 8049
1, 8001
1, 8001
1, 7969
1, 7937
1, 7937
1, 7905
1, 7921
1, 7921
1, 7921
1, 7921
1, 7889
1, 7841
1, 7841
1, 7793
1, 7745
1, 7713
1, 7681
1, 7681
1, 7633
1, 7633
1, 7585
1, 7585
1, 7537
1, 7505
1, 7537
1, 7505
1, 7521
1, 7473
1, 7441
1, 7441
1, 7393
1, 7361
1, 7361
1, 7345
1, 7313
1, 7297
1, 7265
1, 7265
1, 7217
1, 7201
1, 7153
1, 7153
1, 7137
1, 7121
1, 7105
1, 7089
1, 7073
1, 7057
1, 7025
1, 6993
1, 6993
1, 6977
1, 6961
1, 6913
1, 6929
1, 6913
1, 6913
1, 6881
1, 6881
1, 6849
1, 6865
1, 6849
1, 6817
1, 6817
1, 6817
1, 6801
1, 6753
1, 6817
1, 6817
1, 6865
1, 6849
1, 6849
1, 6785
1, 6753
1, 6753
1, 6753
1, 6769
1, 6785
1, 6705
1, 6753
1, 6689
1, 6689
1, 6689
1, 6657
1, 6625
1, 6625
1, 6577
1, 6593
1, 6561
1, 6545
1, 6529
1, 6561
1, 6577
1, 6561
1, 6609
1, 6657
1, 6657
1, 6609
1, 6593
1, 6673
1, 6689
1, 6689
1, 6849
1, 6897
1, 6913
1, 6881
1, 6881
1, 6833
1, 6849
1, 6817
1, 6801
1, 6769
1, 6801
1, 6753
1, 6737
1, 6721
1, 6721
1, 6737
1, 6721
1, 6721
1, 6737
1, 6705
1, 6705
1, 6673
1, 6657
1, 6641
1, 6609
1, 6609
1, 6593
1, 6561
1, 6561
1, 6545
1, 6529
1, 6513
1, 6497
1, 6481
1, 6465
1, 6449
1, 6433
1, 6433
1, 6417
1, 6433
1, 6417
1, 6433
1, 6433
1, 6401
1, 6369
1, 6369
1, 6353
1, 6353
1, 6337
1, 6337
1, 6305
1, 6289
1, 6337
1, 6305
1, 6305
1, 6289
1, 6305
1, 6305
1, 6273
1, 6273
1, 6289
1, 6273
1, 6257
1, 6241
1, 6273
1, 6273
1, 6273
1, 6225
1, 6225
1, 6209
1, 6209
1, 6209
1, 6209
1, 6225
1, 6209
1, 6177
1, 6193
1, 6193
1, 6161
1, 6161
1, 6161
1, 6145
1, 6145
1, 6113
1, 6129
1, 6113
1, 6113
1, 6097
1, 6113
1, 6097
1, 6097
1, 6081
1, 6065
1, 6081
1, 6065
1, 6065
1, 6049
1, 6065
1, 6065
1, 6049
1, 6033
1, 6049
1, 6033
1, 6033
1, 6049
1, 6049
1, 6033
1, 6033
1, 6017
1, 6017
1, 6001
1, 6001
1, 5985
1, 5969
1, 5969
1, 5969
1, 5969
1, 5969
1, 5953
1, 5953
1, 5953
1, 5953
1, 5953
1, 5921
1, 5921
1, 5921
1, 5937
1, 5921
1, 5953
1, 5969
1, 5953
1, 5937
1, 5953
1, 5953
1, 5953
1, 5937
1, 5937
1, 5921
1, 5969
1, 6001
1, 5985
1, 5969
1, 5953
1, 5985
1, 5985
1, 5985
1, 5985
1, 6049
1, 6081
1, 6049
1, 6065
1, 6065
1, 6049
1, 6065
1, 6033
1, 6017
1, 6033
1, 6049
1, 6097
1, 6113
1, 6113
1, 6081
1, 6113
1, 6145
1, 6113
1, 6081
1, 6129
1, 6145
1, 6113
1, 6113
1, 6113
1, 6113
1, 6097
1, 6097
1, 6161
1, 6209
1, 6177
1, 6177
1, 6177
1, 6193
1, 6177
1, 6145
1, 6145
1, 6209
1, 6257
1, 6321
1, 6417
1, 6465
1, 6449
1, 6481
1, 6481
1, 6625
1, 6705
1, 6673
1, 6689
1, 6737
1, 6705
1, 6721
1, 6721
1, 6737
1, 6721
1, 6721
1, 6753
1, 6785
1, 6785
1, 6769
1, 6801
1, 6817
1, 6817
1, 6801
1, 6801
1, 6769
1, 6785
1, 6753
1, 4945
1, 4977
1, 5025
1, 5089
1, 5089
1, 5057
1, 5073
1, 5089
1, 5089
1, 5089
1, 5057
1, 5105
1, 5201
1, 5185
1, 5169
1, 5169
1, 5153
1, 5121
1, 5105
1, 5121
1, 5121
1, 5089
1, 5089
1, 5057
1, 5073
1, 5137
1, 5121
1, 5137
1, 5121
1, 5121
1, 5105
1, 5121
1, 5169
1, 5201
1, 5249
1, 5265
1, 5329
1, 5345
1, 5393
1, 5601
1, 5697
1, 5729
1, 5745
1, 5761
1, 5889
1, 5873
1, 5857
1, 5937
1, 5953
1, 5905
1, 5953
1, 6001
1, 5969
1, 5953
1, 5905
1, 5953
1, 5937
1, 5937
1, 5921
1, 5953
1, 6033
1, 6049
1, 6081
1, 6081
1, 6065
1, 6049
1, 6081
1, 6177
1, 6289
1, 6273
1, 6241
1, 6209
1, 6177
1, 6273
1, 6449
1, 6433
1, 6401
1, 6401
1, 6513
1, 6545
1, 6513
1, 6529
1, 6529
1, 6513
1, 6529
1, 6529
1, 6529
1, 6545
1, 6561
1, 6641
1, 6625
1, 6625
1, 6705
1, 6785
1, 6801
1, 6817
1, 6785
1, 6753
1, 6721
1, 6785
1, 6945
1, 7009
1, 7009
1, 7073
1, 7201
1, 7297
1, 7265
1, 7297
1, 7345
1, 7297
1, 7233
1, 7233
1, 7185
1, 7201
1, 7217
1, 7185
1, 7201
1, 7297
1, 7249
1, 7233
1, 7201
1, 7217
1, 7233
1, 7281
1, 7265
1, 7233
1, 7185
1, 7185
1, 7121
1, 7137
1, 7073
1, 7073
1, 7041
1, 6993
1, 7041
1, 7009
1, 6977
1, 6945
1, 6913
1, 6865
1, 6833
1, 6785
1, 6833
1, 6785
1, 6801
1, 6769
1, 6769
1, 6753
1, 6705
1, 6705
1, 6673
1, 6657
1, 6593
1, 6593
1, 6561
1, 6545
1, 6529
1, 6625
1, 6609
1, 6593
1, 6577
1, 6513
1, 6497
1, 6465
1, 6449
1, 6417
1, 6385
1, 6369
1, 6353
1, 6369
1, 6353
1, 6321
1, 6289
1, 6241
1, 6225
1, 6209
1, 6193
1, 6193
1, 6193
1, 6241
1, 6209
1, 6209
1, 6161
1, 6193
1, 6161
1, 6177
1, 6193
1, 6161
1, 6145
1, 6113
1, 6097
1, 6065
1, 6065
1, 6065
1, 6033
1, 5969
1, 5953
1, 5937
1, 5937
1, 5889
1, 5889
1, 5873
1, 5873
1, 5889
1, 5841
1, 5809
1, 5761
1, 5745
1, 5729
1, 5729
1, 5697
1, 5665
1, 5681
1, 5633
1, 5617
1, 5633
1, 5569
1, 5537
1, 5537
1, 5553
1, 5537
1, 5505
1, 5489
1, 5489
1, 5457
1, 5489
1, 5473
1, 5441
1, 5425
1, 5441
1, 5457
1, 5409
1, 5393
1, 5425
1, 5425
1, 5393
1, 5377
1, 5377
1, 5377
1, 5345
1, 5345
1, 5345
1, 5329
1, 5313
1, 5313
1, 5297
1, 5297
1, 5313
1, 5329
1, 5297
1, 5393
1, 5393
1, 5377
1, 5377
1, 5409
1, 5457
1, 5441
1, 5393
1, 5393
1, 5377
1, 5345
1, 5329
1, 5329
1, 5281
1, 5297
1, 5297
1, 5281
1, 5265
1, 5297
1, 5329
1, 5377
1, 5409
1, 5377
1, 5393
1, 5425
1, 5441
1, 5409
1, 5393
1, 5393
1, 5377
1, 5345
1, 5329
1, 5329
1, 5329
1, 5345
1, 5345
1, 5361
1, 5361
1, 5361
1, 5441
1, 5441
1, 5441
1, 5457
1, 5569
1, 5617
1, 5633
1, 5601
1, 5649
1, 5633
1, 5665
1, 5713
1, 5697
1, 5793
1, 5777
1, 5825
1, 5793
1, 5825
1, 5809
1, 5809
1, 5777
1, 5809
1, 5841
1, 5921
1, 5937
1, 5953
1, 6033
1, 6049
1, 6081
1, 6225
1, 6337
1, 6481
1, 6657
1, 6641
1, 6609
1, 6609
1, 6593
1, 6561
1, 6529
1, 6497
1, 6497
1, 6481
1, 6497
1, 6497
1, 6561
1, 6545
1, 6641
1, 6689
1, 6881
1, 6881
1, 6961
1, 7233
1, 7297
1, 7281
1, 7265
1, 7377
1, 7361
1, 7329
1, 7377
1, 7425
1, 7521
1, 7601
1, 7713
1, 7681
1, 7793
1, 7905
1, 8161
1, 8161
1, 8177
1, 8145
1, 8129
1, 8113
1, 8097
1, 8161
1, 8210
1, 8177
1, 8258
1, 8226
1, 8258
1, 8274
1, 8306
1, 8338
1, 8322
1, 8290
1, 8258
1, 8161
1, 8161
1, 8129
1, 8097
1, 8033
1, 8033
1, 7953
1, 7921
1, 7857
1, 7809
1, 7761
1, 7697
1, 7633
1, 7633
1, 7569
1, 7521
1, 7601
1, 7617
1, 7617
1, 7537
1, 7537
1, 7537
1, 7585
1, 7601
1, 7601
1, 7681
1, 7777
1, 7809
1, 7889
1, 8001
1, 8194
1, 8161
1, 8145
1, 8129
1, 8258
1, 8290
1, 8338
1, 8354
1, 8306
1, 8322
1, 8290
1, 8290
1, 8226
1, 8194
1, 8113
1, 8081
1, 8049
1, 8001
1, 7937
1, 7889
1, 7841
1, 7825
1, 7841
1, 7793
1, 7761
1, 7761
1, 7729
1, 7681
1, 7665
1, 7617
1, 7585
1, 7537
1, 7505
1, 7457
1, 7425
1, 7377
1, 7361
1, 7329
1, 7297
1, 7265
1, 7249
1, 7233
1, 7201
1, 7153
1, 7137
1, 7105
1, 7073
1, 7057
1, 7009
1, 6977
1, 6929
1, 6913
1, 6897
1, 6849
1, 6817
1, 6833
1, 6801
1, 6785
1, 6753
1, 6737
1, 6769
1, 6753
1, 6721
1, 6689
1, 6657
1, 6625
1, 6625
1, 6577
1, 6561
1, 6593
1, 6673
1, 6641
1, 6625
1, 6577
1, 6545
1, 6529
1, 6497
1, 6497
1, 6449
1, 6449
1, 6433
1, 6417
1, 6417
1, 6417
1, 6465
1, 6449
1, 6433
1, 6497
1, 6529
1, 6545
1, 6513
1, 6529
1, 6545
1, 6513
1, 6529
1, 6465
1, 6465
1, 6433
1, 6385
1, 6401
1, 6401
1, 6369
1, 6321
1, 6289
1, 6289
1, 6241
1, 6225
1, 6193
1, 6161
1, 6177
1, 6225
1, 6225
1, 6177
1, 6177
1, 6145
1, 6113
1, 6097
1, 6097
1, 6065
1, 6033
1, 6017
1, 6001
1, 5985
1, 5985
1, 5953
1, 5937
1, 5905
1, 5905
1, 5873
1, 5921
1, 5873
1, 5841
1, 5857
1, 5889
1, 5905
1, 5857
1, 5953
1, 6017
1, 6033
1, 6017
1, 5985
1, 5985
1, 5953
1, 5937
1, 5889
1, 5889
1, 5873
1, 5841
1, 5857
1, 5841
1, 5825
1, 5809
1, 5761
1, 5761
1, 5761
1, 5745
1, 5729
1, 5697
1, 5681
1, 5681
1, 5729
1, 5697
1, 5665
1, 5665
1, 5681
1, 5665
1, 5617
1, 5633
1, 5617
1, 5601
1, 5601
1, 5569
1, 5569
1, 5633
1, 5537
1, 5521
1, 5521
1, 5601
1, 5601
1, 5585
1, 5585
1, 5569
1, 5553
1, 5569
1, 5569
1, 5553
1, 5537
1, 5537
1, 5505
1, 5521
1, 5505
1, 5489
1, 5489
1, 5505
1, 5489
1, 5441
1, 5489
1, 5489
1, 5489
1, 5473
1, 5441
1, 5425
1, 5457
1, 5489
1, 5457
1, 5425
1, 5425
1, 5409
1, 5393
1, 5409
1, 5409
1, 5377
1, 5377
1, 5361
1, 5329
1, 5345
1, 5313
1, 5313
1, 5297
1, 5281
1, 5265
1, 5265
1, 5313
1, 5345
1, 5313
1, 5313
1, 5313
1, 5297
1, 5329
1, 5361
1, 5345
1, 5329
1, 5345
1, 5297
1, 5377
1, 5425
1, 5489
1, 5505
1, 5457
1, 5457
1, 5489
1, 5457
1, 5521
1, 5553
1, 5537
1, 5537
1, 5585
1, 5569
1, 5553
1, 5585
1, 5521
1, 5553
1, 5553
1, 5537
1, 5521
1, 5521
1, 5489
1, 5521
1, 5521
1, 5521
1, 5553
1, 5569
1, 5585
1, 5601
1, 5569
1, 5601
1, 5601
1, 5601
1, 5601
1, 5569
1, 5617
1, 5649
1, 5665
1, 5665
1, 5649
1, 5633
1, 5633
1, 5665
1, 5681
1, 5665
1, 5649
1, 5681
1, 5697
1, 5681
1, 5713
1, 5777
1, 5809
1, 5825
1, 5825
1, 5873
1, 5905
1, 5905
1, 5969
1, 5969
1, 5969
1, 5953
1, 5937
1, 5921
1, 5905
1, 5953
1, 5953
1, 5921
1, 5953
1, 5921
1, 5921
1, 5937
1, 5937
1, 5889
1, 5873
1, 5873
1, 5841
1, 5921
1, 5937
1, 5921
1, 5937
1, 5969
1, 6017
1, 6017
1, 5985
1, 5953
1, 5985
1, 5969
1, 5953
1, 5921
1, 5969
1, 5969
1, 5985
1, 6017
1, 5985
1, 5969
1, 6049
1, 6049
1, 6065
1, 6097
1, 6065
1, 6145
1, 6177
1, 6161
1, 6257
1, 6241
1, 6241
1, 6241
1, 6257
1, 6209
1, 6257
1, 6241
1, 6193
1, 6193
1, 6193
1, 6177
1, 6241
1, 6289
1, 6257
1, 6257
1, 6273
1, 6305
1, 6321
1, 6321
1, 6353
1, 6417
1, 6417
1, 6449
1, 6417
1, 6401
1, 6401
1, 6385
1, 6385
1, 6401
1, 6465
1, 6449
1, 6465
1, 6497
1, 6561
1, 6513
1, 6513
1, 6481
1, 6465
1, 6417
1, 6433
1, 6401
1, 6369
1, 6433
1, 6401
1, 6401
1, 6385
1, 6337
1, 6369
1, 6385
1, 6401
1, 6433
1, 6497
1, 6465
1, 6497
1, 6449
1, 6449
1, 6449
1, 6641
1, 6641
1, 6657
1, 6657
1, 6641
1, 6625
1, 6561
1, 6577
1, 6577
1, 6577
1, 6593
1, 6561
1, 6577
1, 6561
1, 6513
1, 6497
1, 6481
1, 6465
1, 6481
1, 6449
1, 6449
1, 6433
1, 6417
1, 6401
1, 6401
1, 6385
1, 6369
1, 6337
1, 6337
1, 6321
1, 6337
1, 6353
1, 6353
1, 6321
1, 6321
1, 6305
1, 6241
1, 6241
1, 6257
1, 6225
1, 6225
1, 6193
1, 6193
1, 6193
1, 6145
1, 6113
1, 6097
1, 6097
1, 6113
1, 6081
1, 6081
1, 6049
1, 6049
1, 6049
1, 6033
1, 5985
1, 5969
1, 5969
1, 5953
1, 5921
1, 5937
1, 5953
1, 5921
1, 5905
1, 5921
1, 5889
1, 5905
1, 5841
1, 5857
1, 5777
1, 5809
1, 5793
1, 5793
1, 5793
1, 5777
1, 5777
1, 5777
1, 5841
1, 5793
1, 5697
1, 5745
1, 5681
1, 5681
1, 5681
1, 5665
1, 5697
1, 5697
1, 5633
1, 5649
1, 5633
1, 5633
1, 5601
1, 5617
1, 5585
1, 5585
1, 5553
1, 5585
1, 5585
1, 5617
1, 5633
1, 5601
1, 5601
1, 5585
1, 5569
1, 5585
1, 5569
1, 5569
1, 5553
1, 5569
1, 5585
1, 5585
1, 5553
1, 5553
1, 5553
1, 5553
1, 5537
1, 5537
1, 5537
1, 5553
1, 5505
1, 5569
1, 5553
1, 5553
1, 5569
1, 5569
1, 5569
1, 5553
1, 5569
1, 5617
1, 5617
1, 5585
1, 5585
1, 5585
1, 5601
1, 5601
1, 5649
1, 5729
1, 5777
1, 5793
1, 5761
1, 5857
1, 5937
1, 5953
1, 6081
1, 6097
1, 6097
1, 6097
1, 6145
1, 6177
1, 6193
1, 6273
1, 6273
1, 6273
1, 6273
1, 6321
1, 6305
1, 6321
1, 6305
1, 6289
1, 6273
1, 6353
1, 6433
1, 6465
1, 6673
1, 6705
1, 6705
1, 6689
1, 6689
1, 6657
1, 6657
1, 6657
1, 6625
1, 6609
1, 6689
1, 6721
1, 6753
1, 6753
1, 6849
1, 6881
1, 7057
1, 7025
1, 7041
1, 7121
1, 7249
1, 7329
1, 7585
1, 7665
1, 7681
1, 7665
1, 7681
1, 7713
1, 7745
1, 7809
1, 7841
1, 7825
1, 7809
1, 7761
1, 7761
1, 7761
1, 7697
1, 7681
1, 7649
1, 7665
1, 7649
1, 7633
1, 7633
1, 7585
1, 7553
1, 7553
1, 7569
1, 7713
1, 7745
1, 7889
1, 7873
1, 7937
1, 7905
1, 8017
1, 8113
1, 8113
1, 8113
1, 8129
1, 8129
1, 8145
1, 8097
1, 8097
1, 8049
1, 8049
1, 8017
1, 8049
1, 8033
1, 7985
1, 7969
1, 8033
1, 8017
1, 8033
1, 7985
1, 7953
1, 7921
1, 7905
1, 7825
1, 7825
1, 7825
1, 7761
1, 7729
1, 7697
1, 7665
1, 7633
1, 7617
1, 7585
1, 7569
1, 7521
1, 7505
1, 7473
1, 7473
1, 7409
1, 7361
1, 7329
1, 7313
1, 7329
1, 7393
1, 7393
1, 7361
1, 7393
1, 7361
1, 7377
1, 7473
1, 7489
1, 7633
1, 7649
1, 7633
1, 7649
1, 7569
1, 7569
1, 7521
1, 7505
1, 7457
1, 7457
1, 7393
1, 7393
1, 7377
1, 7393
1, 7361
1, 7329
1, 7297
1, 7265
1, 7265
1, 7217
1, 7217
1, 7249
1, 7153
1, 7153
1, 7137
1, 7137
1, 7121
1, 7073
1, 7057
1, 7057
1, 7025
1, 7009
1, 6993
1, 6945
1, 6977
1, 6945
1, 6897
1, 6913
1, 6865
1, 6817
1, 6817
1, 6769
1, 6753
1, 6737
1, 6689
1, 6673
1, 6657
1, 6657
1, 6657
1, 6625
1, 6625
1, 6593
1, 6545
1, 6529
1, 6481
1, 6465
1, 6465
1, 6449
1, 6433
1, 6401
1, 6401
1, 6353
1, 6337
1, 6321
1, 6305
1, 6305
1, 6273
1, 6257
1, 6241
1, 6241
1, 6209
1, 6209
1, 6209
1, 6209
1, 6193
1, 6225
1, 6193
1, 6161
1, 6193
1, 6177
1, 6145
1, 6145
1, 6161
1, 6113
1, 6081
1, 6097
1, 6081
1, 6081
1, 6033
1, 6033
1, 6017
1, 5969
1, 5969
1, 5937
1, 5905
1, 5937
1, 5985
1, 5969
1, 5921
1, 5937
1, 5857
1, 5905
1, 5873
1, 5889
1, 5857
1, 5857
1, 5857
1, 5857
1, 5841
1, 5841
1, 5825
1, 5793
1, 5809
1, 5793
1, 5793
1, 5761
1, 5745
1, 5729
1, 5713
1, 5745
1, 5697
1, 5713
1, 5681
1, 5649
1, 5665
1, 5713
1, 5729
1, 5745
1, 5729
1, 5729
1, 5697
1, 5761
1, 5745
1, 5745
1, 5745
1, 5745
1, 5729
1, 5729
1, 5697
1, 5713
1, 5713
1, 5761
1, 5809
1, 5793
1, 5777
1, 5793
1, 5777
1, 5761
1, 5729
1, 5745
1, 5729
1, 5713
1, 5713
1, 5713
1, 5713
1, 5681
1, 5729
1, 5697
1, 5745
1, 5761
1, 5777
1, 5761
1, 5745
1, 5729
1, 5697
1, 5697
1, 5697
1, 5697
1, 5681
1, 5665
1, 5681
1, 5665
1, 5665
1, 5649
1, 5649
1, 5633
1, 5633
1, 5633
1, 5601
1, 5585
1, 5585
1, 5569
1, 5553
1, 5553
1, 5585
1, 5585
1, 5569
1, 5553
1, 5633
1, 5633
1, 5649
1, 5601
1, 5601
1, 5601
1, 5617
1, 5601
1, 5633
1, 5681
1, 5713
1, 5681
1, 5665
1, 5681
1, 5665
1, 5665
1, 5681
1, 5665
1, 5681
1, 5649
1, 5665
1, 5633
1, 5649
1, 5665
1, 5681
1, 5681
1, 5681
1, 5681
1, 5681
1, 5729
1, 5697
1, 5713
1, 5745
1, 5729
1, 5729
1, 5713
1, 5713
1, 5697
1, 5697
1, 5713
1, 5697
1, 5697
1, 5665
1, 5681
1, 5729
1, 5713
1, 5713
1, 5713
1, 5713
1, 5697
1, 5697
1, 5697
1, 5697
1, 5713
1, 5681
1, 5713
1, 5681
1, 5681
1, 5697
1, 5761
1, 5809
1, 5857
1, 5857
1, 5825
1, 5841
1, 5825
1, 5809
1, 5809
1, 5809
1, 5825
1, 5857
1, 5889
1, 5905
1, 5921
1, 5985
1, 5953
1, 5985
1, 6001
1, 6113
1, 6177
1, 6209
1, 6161
1, 6241
1, 6289
1, 6273
1, 6273
1, 6289
1, 6289
1, 6241
1, 6273
1, 6257
1, 6241
1, 6225
1, 6225
1, 6241
1, 6337
1, 6481
1, 6513
1, 6545
1, 6721
1, 6993
1, 7137
1, 7089
1, 7137
1, 7185
1, 7265
1, 7233
1, 7361
1, 7393
1, 7393
1, 7361
1, 7345
1, 7345
1, 7345
1, 7329
1, 7313
1, 7265
1, 7313
1, 7281
1, 7313
1, 7281
1, 7281
1, 7297
1, 7313
1, 7377
1, 7329
1, 7313
1, 7329
1, 7393
1, 7409
1, 7377
1, 7393
1, 7425
1, 7425
1, 7409
1, 7425
1, 7377
1, 7393
1, 7441
1, 7521
1, 7521
1, 7585
1, 7665
1, 7649
1, 7697
1, 7665
1, 7681
1, 7681
1, 7617
1, 7585
1, 7553
1, 7585
1, 7649
1, 7633
1, 7585
1, 7553
1, 7537
1, 7521
1, 7489
1, 7457
1, 7473
1, 7457
1, 7425
1, 7393
1, 7393
1, 7377
1, 7329
1, 7281
1, 7281
1, 7297
1, 7297
1, 7249
1, 7249
1, 7265
1, 7265
1, 7217
1, 7233
1, 7185
1, 7201
1, 7201
1, 7201
1, 7153
1, 7137
1, 7105
1, 7089
1, 7105
1, 7105
1, 7073
1, 7121
1, 7265
1, 7281
1, 7249
1, 7265
1, 7201
1, 7201
1, 7169
1, 7137
1, 7121
1, 7121
1, 7089
1, 7073
1, 7089
1, 7121
1, 7153
1, 7121
1, 7137
1, 7137
1, 7089
1, 7137
1, 7153
1, 7137
1, 7121
1, 7089
1, 7073
1, 7089
1, 7073
1, 7041
1, 7057
1, 7057
1, 7009
1, 7009
1, 7025
1, 7041
1, 7041
1, 7153
1, 7137
1, 7137
1, 7137
1, 7137
1, 7105
1, 7105
1, 7089
1, 7073
1, 7057
1, 7025
1, 7009
1, 6961
1, 6961
1, 6945
1, 6913
1, 6897
1, 6881
1, 6897
1, 6865
1, 6849
1, 6817
1, 6785
1, 6753
1, 6721
1, 6753
1, 6721
1, 6689
1, 6673
1, 6657
1, 6657
1, 6641
1, 6657
1, 6625
1, 6625
1, 6609
1, 6593
1, 6577
1, 6561
1, 6561
1, 6529
1, 6561
1, 6529
1, 6529
1, 6561
1, 6513
1, 6481
1, 6497
1, 6561
1, 6513
1, 6513
1, 6497
1, 6481
1, 6481
1, 6449
1, 6449
1, 6465
1, 6497
1, 6497
1, 6449
1, 6449
1, 6497
1, 6625
1, 6593
1, 6625
1, 6625
1, 6593
1, 6625
1, 6609
1, 6609
1, 6609
1, 6593
1, 6561
1, 6593
1, 6609
1, 6609
1, 6625
1, 6673
1, 6737
1, 6705
1, 6801
1, 6817
1, 6817
1, 6769
1, 6753
1, 6785
1, 6769
1, 6753
1, 6785
1, 6833
1, 6833
1, 6897
1, 6961
1, 6977
1, 6977
1, 6993
1, 6993
1, 7009
1, 6993
1, 6961
1, 7041
1, 7057
1, 7041
1, 7025
1, 6993
1, 6961
1, 6961
1, 6945
1, 6881
1, 6865
1, 6849
1, 6865
1, 6849
1, 6785
1, 6785
1, 6769
1, 6737
1, 6721
1, 6721
1, 6785
1, 6833
1, 6817
1, 6833
1, 6849
1, 6865
1, 6993
1, 7121
1, 7393
1, 7537
1, 7601
1, 7809
1, 7761
1, 7761
1, 7777
1, 7793
1, 7777
1, 7825
1, 7841
1, 7777
1, 7761
1, 7745
1, 7889
1, 7905
1, 7985
1, 7985
1, 7985
1, 8113
1, 8194
1, 8194
1, 8194
1, 8210
1, 8194
1, 8322
1, 8386
1, 8370
1, 8482
1, 8482
1, 8482
1, 8530
1, 8450
1, 8466
1, 8434
1, 8370
1, 8386
1, 8450
1, 8466
1, 8466
1, 8498
1, 8626
1, 8610
1, 8546
1, 8530
1, 8546
1, 8530
1, 8562
1, 8578
1, 8722
1, 8674
1, 8706
1, 8690
1, 8658
1, 8930
1, 8930
1, 9234
1, 9554
1, 9554
1, 9618
1, 9666
1, 9586
1, 9538
1, 9538
1, 9458
1, 9426
1, 9442
1, 9458
1, 9410
1, 9346
1, 9282
1, 9250
1, 9202
1, 9154
1, 9106
1, 9042
1, 8994
1, 8962
1, 8882
1, 8834
1, 8802
1, 8850
1, 8882
1, 8866
1, 8818
1, 8834
1, 9026
1, 9138
1, 9298
1, 9266
1, 9250
1, 9186
1, 9154
1, 9234
1, 9170
1, 9186
1, 9122
1, 9282
1, 9250
1, 9218
1, 9234
1, 9218
1, 9202
1, 9186
1, 9138
1, 9074
1, 9106
1, 9106
1, 9058
1, 9042
1, 8994
1, 8994
1, 8914
1, 8882
1, 8818
1, 8786
1, 8786
1, 8818
1, 8802
1, 8770
1, 8738
1, 8754
1, 8754
1, 8674
1, 8642
1, 8594
1, 8562
1, 8578
1, 8482
1, 8450
1, 8466
1, 8434
1, 8370
1, 8322
1, 8258
1, 8242
1, 8258
1, 8210
1, 8194
1, 8097
1, 8065
1, 8033
1, 8001
1, 7985
1, 7953
1, 7937
1, 7889
1, 7825
1, 7777
1, 7729
1, 7713
1, 7681
1, 7665
1, 7601
1, 7585
1, 7553
1, 7521
1, 7489
1, 7441
1, 7425
1, 7409
1, 7393
1, 7329
1, 7313
1, 7297
1, 7249
1, 7201
1, 7185
1, 7169
1, 7153
1, 7153
1, 7121
1, 7137
1, 7105
1, 7073
1, 7041
1, 7009
1, 7009
1, 7009
1, 6961
1, 6913
1, 6913
1, 6865
1, 6849
1, 6833
1, 6849
1, 6801
1, 6769
1, 6753
1, 6737
1, 6737
1, 6737
1, 6705
1, 6705
1, 6657
1, 6657
1, 6673
1, 6673
1, 6641
1, 6593
1, 6577
1, 6561
1, 6561
1, 6529
1, 6513
1, 6497
1, 6481
1, 6417
1, 6417
1, 6465
1, 6433
1, 6481
1, 6481
1, 6449
1, 6433
1, 6401
1, 6401
1, 6401
1, 6369
1, 6369
1, 6353
1, 6353
1, 6337
1, 6337
1, 6353
1, 6353
1, 6305
1, 6305
1, 6321
1, 6289
1, 6273
1, 6257
1, 6209
1, 6257
1, 6193
1, 6193
1, 6145
1, 6177
1, 6177
1, 6145
1, 6145
1, 6145
1, 6113
1, 6113
1, 6113
1, 6097
1, 6065
1, 6081
1, 6097
1, 6097
1, 6065
1, 6065
1, 6065
1, 6033
1, 6033
1, 6033
1, 6017
1, 6033
1, 6017
1, 5985
1, 5969
1, 5969
1, 5969
1, 5985
1, 5953
1, 5953
1, 5953
1, 5953
1, 5921
1, 5937
1, 5905
1, 5873
1, 5889
1, 5905
1, 5857
1, 5873
1, 5841
1, 5841
1, 5841
1, 5841
1, 5857
1, 5889
1, 5809
1, 5841
1, 5825
1, 5841
1, 5841
1, 5841
1, 5905
1, 5905
1, 5921
1, 5905
1, 5921
1, 5889
1, 5857
1, 5857
1, 5857
1, 5857
1, 5825
1, 5809
1, 5841
1, 5825
1, 5825
1, 5841
1, 5825
1, 5825
1, 5809
1, 5825
1, 5793
1, 5793
1, 5777
1, 5777
1, 5777
1, 5793
1, 5761
1, 5793
1, 5809
1, 5857
1, 5825
1, 5793
1, 5809
1, 5825
1, 5841
1, 5857
1, 5825
1, 5825
1, 5825
1, 5825
1, 5809
1, 5825
1, 5825
1, 5841
1, 5857
1, 5841
1, 5857
1, 5841
1, 5857
1, 5841
1, 5825
1, 5857
1, 5825
1, 5905
1, 5905
1, 5889
1, 5921
1, 5953
1, 5953
1, 6001
1, 6001
1, 5985
1, 6017
1, 6017
1, 6049
1, 6049
1, 6017
1, 6049
1, 6065
1, 6065
1, 6129
1, 6145
1, 6193
1, 6193
1, 6145
1, 6113
1, 6097
1, 6113
1, 6097
1, 6113
1, 6097
1, 6097
1, 6097
1, 6081
1, 6049
1, 6049
1, 6049
1, 6065
1, 6065
1, 6065
1, 6049
1, 6033
1, 6081
1, 6097
1, 6129
1, 6209
1, 6305
1, 6289
1, 6273
1, 6257
1, 6257
1, 6273
1, 6257
1, 6257
1, 6273
1, 6273
1, 6241
1, 6225
1, 6289
1, 6321
1, 6337
1, 6289
1, 6321
1, 6369
1, 6353
1, 6337
1, 6369
1, 6321
1, 6353
1, 6369
1, 6353
1, 6369
1, 6337
1, 6337
1, 6321
1, 6369
1, 6401
1, 6417
1, 6417
1, 6465
1, 6465
1, 6529
1, 6641
1, 6657
1, 6641
1, 6625
1, 6641
1, 6705
1, 6705
1, 6737
1, 6753
1, 6705
1, 6721
1, 6753
1, 6769
1, 6785
1, 6721
1, 6769
1, 6737
1, 6737
1, 6721
1, 6705
1, 6737
1, 6801
1, 6753
1, 6801
1, 6817
1, 6769
1, 6753
1, 6737
1, 6753
1, 6801
1, 6913
1, 6913
1, 6881
1, 6913
1, 6913
1, 6897
1, 6945
1, 6977
1, 6929
1, 6977
1, 6993
1, 7025
1, 7041
1, 7057
1, 7009
1, 7009
1, 7025
1, 6993
1, 6961
1, 6929
1, 6913
1, 6913
1, 6897
1, 6929
1, 6913
1, 6929
1, 6897
1, 6897
1, 6929
1, 6913
1, 6913
1, 6849
1, 6849
1, 6833
1, 6833
1, 6785
1, 6817
1, 6801
1, 6801
1, 6817
1, 6817
1, 6865
1, 6849
1, 6833
1, 6785
1, 6753
1, 6753
1, 6737
1, 6737
1, 6705
1, 6689
1, 6705
1, 6705
1, 6657
1, 6641
1, 6673
1, 6641
1, 6625
1, 6577
1, 6577
1, 6529
1, 6497
1, 6481
1, 6513
1, 6529
1, 6481
1, 6481
1, 6497
1, 6529
1, 6481
1, 6465
1, 6497
1, 6529
1, 6497
1, 6481
1, 6465
1, 6433
1, 6417
1, 6417
1, 6385
1, 6401
1, 6417
1, 6417
1, 6401
1, 6385
1, 6385
1, 6353
1, 6369
1, 6305
1, 6337
1, 6321
1, 6289
1, 6273
1, 6273
1, 6273
1, 6193
1, 6193
1, 6193
1, 6209
1, 6145
1, 6161
1, 6129
1, 6113
1, 6097
1, 6049
1, 6097
1, 6113
1, 6081
1, 6081
1, 6097
1, 6081
1, 6065
1, 6017
1, 6017
1, 6081
1, 6033
1, 6049
1, 6065
1, 6065
1, 6081
1, 6049
1, 6033
1, 6017
1, 6017
1, 6017
1, 5985
1, 6049
1, 6017
1, 5985
1, 5953
1, 5953
1, 5937
1, 5921
1, 5953
1, 5969
1, 5985
1, 6001
1, 6001
1, 5953
1, 5953
1, 5937
1, 5937
1, 5953
1, 5921
1, 5921
1, 5953
1, 5889
1, 5889
1, 5889
1, 5889
1, 5873
1, 5889
1, 5873
1, 5857
1, 5857
1, 5889
1, 5873
1, 5825
1, 5841
1, 5825
1, 5857
1, 5841
1, 5825
1, 5841
1, 5793
1, 5809
1, 5809
1, 5825
1, 5793
1, 5777
1, 5809
1, 5841
1, 5841
1, 5809
1, 5825
1, 5793
1, 5809
1, 5793
1, 5809
1, 5777
1, 5729
1, 5745
1, 5729
1, 5745
1, 5729
1, 5729
1, 5681
1, 5681
1, 5665
1, 5681
1, 5697
1, 5697
1, 5697
1, 5713
1, 5697
1, 5745
1, 5729
1, 5713
1, 5713
1, 5697
1, 5681
1, 5713
1, 5713
1, 5729
1, 5713
1, 5697
1, 5713
1, 5681
1, 5713
1, 5697
1, 5681
1, 5665
1, 5665
1, 5649
1, 5665
1, 5617
1, 5633
1, 5617
1, 5601
1, 5601
1, 5601
1, 5601
1, 5649
1, 5697
1, 5713
1, 5713
1, 5713
1, 5681
1, 5697
1, 5697
1, 5729
1, 5761
1, 5729
1, 5745
1, 5681
1, 5681
1, 5681
1, 5697
1, 5681
1, 5681
1, 5681
1, 5665
1, 5665
1, 5681
1, 5665
1, 5665
1, 5665
1, 5649
1, 5665
1, 5617
1, 5649
1, 5633
1, 5633
1, 5665
1, 5633
1, 5633
1, 5633
1, 5633
1, 5617
1, 5633
1, 5633
1, 5601
1, 5649
1, 5633
1, 5601
1, 5633
1, 5633
1, 5601
1, 5633
1, 5633
1, 5633
1, 5617
1, 5601
1, 5601
1, 5601
1, 5553
1, 5569
1, 5601
1, 5601
1, 5681
1, 5681
1, 5665
1, 5713
1, 5729
1, 5697
1, 5697
1, 5697
1, 5713
1, 5713
1, 5777
1, 5873
1, 5969
1, 6017
1, 6049
1, 6129
1, 6161
1, 6225
1, 6241
1, 6257
1, 6273
1, 6321
1, 6321
1, 6321
1, 6337
1, 6433
1, 6497
1, 6513
1, 6513
1, 6513
1, 6497
1, 6481
1, 6481
1, 6465
1, 6433
1, 6561
1, 6577
1, 6561
1, 6609
1, 6673
1, 6737
1, 6753
1, 6961
1, 6977
1, 7121
1, 7169
1, 7169
1, 7153
1, 7185
1, 7217
1, 7201
1, 7185
1, 7201
1, 7297
1, 7329
1, 7297
1, 7297
1, 7313
1, 7377
1, 7473
1, 7601
1, 7793
1, 7777
1, 7761
1, 7697
1, 7697
1, 7937
1, 7969
1, 7937
1, 8001
1, 8065
1, 8049
1, 8033
1, 8001
1, 8129
1, 8113
1, 8081
1, 8033
1, 8097
1, 8258
1, 8370
1, 8578
1, 8546
1, 8562
1, 8546
1, 8578
1, 8562
1, 8642
1, 8658
1, 8626
1, 8610
1, 8658
1, 8770
1, 8786
1, 8786
1, 8930
1, 9010
1, 9058
1, 9090
1, 9026
1, 8994
1, 8962
1, 8882
1, 8866
1, 8802
1, 8770
1, 8754
1, 8738
1, 8690
1, 8642
1, 8610
1, 8626
1, 8578
1, 8546
1, 8514
1, 8450
1, 8434
1, 8498
1, 8498
1, 8706
1, 8786
1, 8738
1, 8690
1, 8642
1, 8642
1, 8578
1, 8530
1, 8498
1, 8450
1, 8418
1, 8338
1, 8354
1, 8370
1, 8354
1, 8322
1, 8306
1, 8258
1, 8274
1, 8226
1, 8210
1, 8194
1, 8194
1, 8129
1, 8097
1, 8065
1, 8049
1, 8065
1, 8049
1, 8017
1, 8001
1, 7969
1, 8001
1, 7985
1, 7953
1, 7937
1, 7905
1, 7889
1, 7873
1, 7809
1, 7793
1, 7761
1, 7729
1, 7809
1, 7889
1, 7873
1, 7809
1, 7777
1, 7745
1, 7697
1, 7665
1, 7617
1, 7617
1, 7633
1, 7697
1, 7665
1, 7649
1, 7617
1, 7617
1, 7617
1, 7665
1, 7633
1, 7585
1, 7569
1, 7521
1, 7473
1, 7457
1, 7409
1, 7393
1, 7345
1, 7329
1, 7297
1, 7281
1, 7265
1, 7297
1, 7329
1, 7409
1, 7393
1, 7377
1, 7329
1, 7329
1, 7265
1, 7249
1, 7217
1, 7201
1, 7169
1, 7121
1, 7121
1, 7121
1, 7057
1, 7073
1, 7041
1, 7009
1, 6993
1, 6961
1, 6993
1, 6961
1, 6945
1, 6945
1, 6945
1, 6929
1, 6929
1, 6897
1, 6881
1, 6849
1, 6817
1, 6817
1, 6785
1, 6785
1, 6785
1, 6737
1, 6721
1, 6705
1, 6673
1, 6657
1, 6657
1, 6625
1, 6609
1, 6641
1, 6625
1, 6593
1, 6529
1, 6529
1, 6529
1, 6513
1, 6497
1, 6497
1, 6449
1, 6465
1, 6417
1, 6433
1, 6433
1, 6433
1, 6417
1, 6385
1, 6401
1, 6385
1, 6369
1, 6353
1, 6337
1, 6337
1, 6305
1, 6305
1, 6321
1, 6273
1, 6289
1, 6289
1, 6289
1, 6273
1, 6273
1, 6273
1, 6209
1, 6209
1, 6177
1, 6177
1, 6161
1, 6161
1, 6145
1, 6113
1, 6113
1, 6129
1, 6129
1, 6129
1, 6113
1, 6113
1, 6113
1, 6129
1, 6097
1, 6081
1, 6049
1, 6065
1, 6049
1, 6065
1, 6065
1, 6049
1, 6049
1, 6049
1, 6001
1, 6033
1, 6017
1, 6017
1, 6001
1, 6017
1, 6017
1, 6001
1, 5985
1, 6001
1, 6001
1, 5969
1, 5953
1, 5953
1, 5921
1, 5921
1, 5921
1, 5937
1, 5953
1, 5937
1, 5937
1, 5937
1, 5921
1, 5921
1, 5905
1, 5905
1, 5889
1, 5857
1, 5873
1, 5921
1, 5889
1, 5905
1, 5857
1, 5889
1, 5889
1, 5857
1, 5873
1, 5889
1, 5905
1, 5889
1, 5873
1, 5857
1, 5857
1, 5857
1, 5857
1, 5841
1, 5825
1, 5841
1, 5841
1, 5809
1, 5793
1, 5777
1, 5777
1, 5777
1, 5777
1, 5777
1, 5745
1, 5793
1, 5777
1, 5793
1, 5761
1, 5745
1, 5777
1, 5777
1, 5761
1, 5809
1, 5793
1, 5777
1, 5761
1, 5697
1, 5697
1, 5729
1, 5713
1, 5729
1, 5697
1, 5681
1, 5665
1, 5649
1, 5697
1, 5681
1, 5713
1, 5681
1, 5665
1, 5665
1, 5617
1, 5601
1, 5617
1, 5601
1, 5569
1, 5585
1, 5569
1, 5585
1, 5585
1, 5505
1, 5505
1, 5537
1, 5505
1, 5537
1, 5457
1, 5473
1, 5505
1, 5553
1, 5585
1, 5553
1, 5489
1, 5489
1, 5505
1, 5521
1, 5505
1, 5473
1, 5457
1, 5489
1, 5505
1, 5505
1, 5521
1, 5569
1, 5601
1, 5601
1, 5585
1, 5569
1, 5553
1, 5553
1, 5553
1, 5553
1, 5553
1, 5553
1, 5537
1, 5553
1, 5569
1, 5585
1, 5585
1, 5601
1, 5585
1, 5569
1, 5585
1, 5569
1, 5585
1, 5585
1, 5585
1, 5649
1, 5665
1, 5649
1, 5633
1, 5617
1, 5585
1, 5601
1, 5665
1, 5697
1, 5697
1, 5793
1, 5873
1, 5889
1, 5937
1, 6049
1, 6033
1, 6081
1, 6097
1, 6097
1, 6193
1, 6417
1, 6417
1, 6449
1, 6385
1, 6417
1, 6433
1, 6433
1, 6417
1, 6449
1, 6417
1, 6401
1, 6385
1, 6385
1, 6369
1, 6353
1, 6321
1, 6321
1, 6305
1, 6305
1, 6321
1, 6305
1, 6353
1, 6305
1, 6305
1, 6289
1, 6289
1, 6305
1, 6305
1, 6289
1, 6289
1, 6305
1, 6353
1, 6417
1, 6449
1, 6481
1, 6545
1, 6513
1, 6513
1, 6625
1, 6609
1, 6593
1, 6593
1, 6769
1, 6785
1, 6785
1, 6785
1, 6785
1, 6801
1, 6785
1, 6753
1, 6817
1, 7073
1, 7297
1, 7345
1, 7425
1, 7521
1, 7521
1, 7473
1, 7457
1, 7425
1, 7425
1, 7441
1, 7489
1, 7473
1, 7457
1, 7473
1, 7601
1, 7665
1, 7665
1, 7649
1, 7697
1, 7729
1, 7713
1, 7745
1, 7793
1, 7841
1, 7921
1, 8001
1, 8001
1, 8065
1, 8065
1, 7985
1, 7985
1, 7969
1, 7921
1, 7921
1, 7905
1, 7921
1, 7873
1, 7857
1, 7777
1, 7761
1, 7793
1, 7777
1, 7857
1, 7825
1, 7809
1, 7745
1, 7761
1, 7793
1, 7745
1, 7745
1, 7713
1, 7729
1, 7745
1, 7745
1, 7745
1, 7713
1, 7745
1, 7745
1, 7761
1, 7729
1, 7713
1, 7681
1, 7649
1, 7585
1, 7585
1, 7537
1, 7553
1, 7505
1, 7473
1, 7457
1, 7457
1, 7425
1, 7489
1, 7505
1, 7457
1, 7441
1, 7425
1, 7393
1, 7393
1, 7377
1, 7425
1, 7393
1, 7377
1, 7345
1, 7281
1, 7265
1, 7249
1, 7201
1, 7185
1, 7153
1, 7153
1, 7137
1, 7089
1, 7105
1, 7073
1, 7073
1, 7041
1, 6993
1, 6961
1, 6945
1, 6945
1, 6897
1, 6865
1, 6849
1, 6833
1, 6881
1, 6849
1, 6833
1, 6801
1, 6801
1, 6785
1, 6769
1, 6737
1, 6689
1, 6673
1, 6673
1, 6657
1, 6625
1, 6625
1, 6609
1, 6609
1, 6625
1, 6625
1, 6609
1, 6593
1, 6593
1, 6529
1, 6529
1, 6497
1, 6497
1, 6465
1, 6449
1, 6449
1, 6449
1, 6449
1, 6433
1, 6417
1, 6385
1, 6369
1, 6353
1, 6321
1, 6337
1, 6305
1, 6289
1, 6289
1, 6305
1, 6273
1, 6273
1, 6241
1, 6225
1, 6225
1, 6209
1, 6209
1, 6241
1, 6209
1, 6193
1, 6177
1, 6145
1, 6113
1, 6145
1, 6113
1, 6097
1, 6097
1, 6065
1, 6097
1, 6097
1, 6113
1, 6097
1, 6065
1, 6033
1, 6017
1, 6001
1, 6033
1, 6049
1, 6001
1, 5985
1, 6001
1, 6017
1, 6001
1, 6001
1, 5969
1, 5969
1, 5921
1, 5921
1, 5937
1, 5921
1, 5889
1, 5921
1, 5905
1, 5889
1, 5905
1, 5873
1, 5873
1, 5841
1, 5841
1, 5825
1, 5825
1, 5825
1, 5857
1, 5857
1, 5841
1, 5809
1, 5809
1, 5825
1, 5825
1, 5825
1, 5825
1, 5841
1, 5793
1, 5777
1, 5777
1, 5761
1, 5761
1, 5825
1, 5825
1, 5841
1, 5841
1, 5841
1, 5793
1, 5793
1, 5841
1, 5825
1, 5825
1, 5857
1, 5825
1, 5825
1, 5825
1, 5793
1, 5793
1, 5809
1, 5809
1, 5809
1, 5793
1, 5793
1, 5793
1, 5793
1, 5777
1, 5793
1, 5809
1, 5825
1, 5857
1, 5841
1, 5857
1, 5825
1, 5841
1, 5857
1, 5889
1, 5889
1, 5905
1, 5873
1, 5873
1, 5857
1, 5841
1, 5857
1, 5857
1, 5873
1, 5905
1, 5937
1, 5937
1, 5969
1, 5953
1, 5985
1, 5985
1, 5969
1, 6033
1, 6049
1, 6065
1, 6017
1, 6065
1, 6145
1, 6113
1, 6145
1, 6145
1, 6145
1, 6129
1, 6145
1, 6129
1, 6145
1, 6145
1, 6113
1, 6129
1, 6129
1, 6113
1, 6113
1, 6145
1, 6145
1, 6145
1, 6161
1, 6161
1, 6193
1, 6225
1, 6225
1, 6241
1, 6257
1, 6209
1, 6209
1, 6241
1, 6385
1, 6385
1, 6385
1, 6433
1, 6401
1, 6385
1, 6497
1, 6609
1, 6705
1, 6721
1, 6769
1, 6849
1, 6865
1, 6897
1, 6865
1, 6881
1, 6881
1, 7057
1, 7121
1, 7105
1, 7105
1, 7169
1, 7153
1, 7137
1, 7073
1, 7089
1, 7025
1, 7009
1, 6977
1, 7009
1, 7009
1, 7249
1, 7329
1, 7489
1, 7537
1, 7505
1, 7473
1, 7441
1, 7441
1, 7457
1, 7441
1, 7457
1, 7457
1, 7457
1, 7441
1, 7553
1, 7665
1, 7649
1, 7697
1, 7681
1, 7697
1, 7777
1, 7745
1, 7809
1, 7873
1, 7873
1, 7825
1, 7841
1, 7841
1, 7905
1, 7953
1, 8049
1, 8033
1, 7969
1, 7937
1, 7953
1, 7905
1, 7969
1, 7937
1, 7937
1, 7889
1, 7873
1, 8129
1, 8097
1, 8113
1, 8097
1, 8129
1, 8081
1, 8065
1, 8017
1, 8033
1, 7969
1, 7937
1, 7953
1, 8001
1, 8033
1, 8113
1, 8065
1, 8081
1, 8113
1, 8290
1, 8434
1, 8402
1, 8402
1, 8450
1, 8450
1, 8418
1, 8386
1, 8402
1, 8466
1, 8626
1, 8690
1, 8706
1, 8770
1, 8914
1, 8882
1, 8850
1, 8802
1, 8834
1, 8962
1, 8962
1, 8930
1, 8946
1, 9026
1, 9010
1, 9026
1, 9122
1, 9282
1, 9426
1, 9378
1, 9410
1, 9442
1, 9394
1, 9554
1, 9810
1, 9778
1, 9810
1, 9778
1, 9794
1, 9842
1, 10034
1, 10242
1, 10354
1, 10338
1, 10498
1, 10578
1, 10562
1, 10530
1, 10642
1, 10626
1, 10578
1, 10562
1, 10562
1, 10530
1, 10498
1, 10482
1, 10434
1, 10402
1, 10434
1, 10322
1, 10274
1, 10322
1, 10258
1, 10194
1, 10146
1, 10066
1, 10162
1, 10274
1, 10274
1, 10274
1, 10290
1, 10306
1, 10370
1, 10434
1, 10370
1, 10306
1, 10258
1, 10274
1, 10226
1, 10242
1, 10162
1, 10098
1, 10002
1, 9986
1, 9970
1, 9906
1, 9858
1, 9874
1, 9826
1, 9922
1, 9906
1, 9874
1, 9906
1, 9938
1, 9874
1, 9794
1, 9842
1, 9874
1, 9954
1, 9938
1, 9906
1, 9826
1, 9794
1, 9746
1, 9698
1, 9682
1, 9602
1, 9538
1, 9538
1, 9490
1, 9442
1, 9362
1, 9314
1, 9250
1, 9218
1, 9218
1, 9170
1, 9122
1, 9090
1, 9026
1, 8994
1, 8930
1, 8882
1, 8866
1, 8786
1, 8754
1, 8706
1, 8674
1, 8690
1, 8626
1, 8578
1, 8578
1, 8546
1, 8466
1, 8482
1, 8450
1, 8434
1, 8386
1, 8338
1, 8338
1, 8306
1, 8306
1, 8322
1, 8290
1, 8226
1, 8210
1, 8129
1, 8065
1, 8065
1, 8017
1, 7985
1, 7985
1, 7953
1, 7921
1, 7873
1, 7873
1, 7873
1, 7841
1, 7841
1, 7793
1, 7777
1, 7729
1, 7697
1, 7665
1, 7633
1, 7569
1, 7569
1, 7537
1, 7521
1, 7489
1, 7521
1, 7553
1, 7537
1, 7521
1, 7489
1, 7473
1, 7473
1, 7505
1, 7457
1, 7425
1, 7409
1, 7377
1, 7377
1, 7345
1, 7313
1, 7345
1, 7297
1, 7281
1, 7281
1, 7265
1, 7249
1, 7233
1, 7217
1, 7185
1, 7185
1, 7137
1, 7121
1, 7105
1, 7073
1, 7073
1, 7041
1, 7025
1, 6977
1, 6993
1, 6945
1, 6929
1, 6913
1, 6913
1, 6881
1, 6881
1, 6865
1, 6849
1, 6817
1, 6817
1, 6801
1, 6801
1, 6785
1, 6769
1, 6753
1, 6737
1, 6721
1, 6705
1, 6673
1, 6673
1, 6657
1, 6625
1, 6609
1, 6625
1, 6609
1, 6577
1, 6593
1, 6577
1, 6561
1, 6529
1, 6545
1, 6561
1, 6545
1, 6513
1, 6529
1, 6513
1, 6513
1, 6497
1, 6465
1, 6465
1, 6465
1, 6449
1, 6417
1, 6417
1, 6417
1, 6385
1, 6369
1, 6385
1, 6369
1, 6337
1, 6369
1, 6337
1, 6321
1, 6337
1, 6321
1, 6321
1, 6353
1, 6321
1, 6321
1, 6289
1, 6273
1, 6289
1, 6273
1, 6273
1, 6305
1, 6273
1, 6289
1, 6321
1, 6305
1, 6305
1, 6321
1, 6321
1, 6321
1, 6305
1, 6353
1, 6369
1, 6369
1, 6353
1, 6305
1, 6337
1, 6321
1, 6305
1, 6289
1, 6289
1, 6273
1, 6273
1, 6257
1, 6225
1, 6241
1, 6225
1, 6209
1, 6225
1, 6209
1, 6177
1, 6225
1, 6257
1, 6225
1, 6257
1, 6305
1, 6337
1, 6433
1, 6545
1, 6593
1, 6561
1, 6593
1, 6673
1, 6705
1, 6705
1, 6769
1, 6833
1, 6817
1, 6785
1, 6785
1, 6753
1, 6737
1, 6737
1, 6721
1, 6705
1, 6673
1, 6657
1, 6657
1, 6657
1, 6657
1, 6609
1, 6609
1, 6593
1, 6577
1, 6657
1, 6673
1, 6689
1, 6785
1, 6833
1, 6801
1, 6833
1, 6785
1, 6801
1, 6785
1, 6785
1, 6785
1, 6769
1, 6753
1, 6753
1, 6737
1, 6737
1, 6705
1, 6721
1, 6737
1, 6737
1, 6737
1, 6737
1, 6785
1, 6769
1, 6753
1, 6817
1, 6865
1, 6833
1, 6897
1, 6945
1, 6881
1, 6881
1, 6865
1, 6865
1, 6881
1, 6865
1, 6849
1, 6865
1, 6849
1, 6849
1, 6833
1, 6849
1, 6849
1, 6817
1, 6785
1, 6769
1, 6753
1, 6737
1, 6721
1, 6737
1, 6737
1, 6753
1, 6753
1, 6785
1, 6769
1, 6769
1, 6769
1, 6801
1, 6801
1, 6785
1, 6737
1, 6769
1, 6753
1, 6785
1, 6785
1, 6753
1, 6721
1, 6753
1, 6785
1, 6833
1, 6801
1, 6817
1, 6801
1, 6817
1, 6769
1, 6785
1, 6817
1, 6801
1, 6769
1, 6785
1, 6817
1, 6817
1, 6785
1, 6817
1, 6785
1, 6785
1, 6737
1, 6769
1, 6785
1, 6785
1, 6769
1, 6753
1, 6737
1, 6721
1, 6737
1, 6753
1, 6737
1, 6801
1, 6817
1, 6801
1, 6785
1, 6785
1, 6785
1, 6817
1, 6785
1, 6769
1, 6753
1, 6753
1, 6753
1, 6705
1, 6689
1, 6673
1, 6673
1, 6689
1, 6657
1, 6641
1, 6673
1, 6641
1, 6625
1, 6641
1, 6657
1, 6673
1, 6657
1, 6657
1, 6657
1, 6625
1, 6625
1, 6609
1, 6609
1, 6577
1, 6609
1, 6609
1, 6577
1, 6577
1, 6561
1, 6545
1, 6513
1, 6529
1, 6497
1, 6481
1, 6465
1, 6449
1, 6433
1, 6433
1, 6449
1, 6449
1, 6449
1, 6401
1, 6385
1, 6369
1, 6401
1, 6369
1, 6369
1, 6369
1, 6337
1, 6353
1, 6353
1, 6369
1, 6321
1, 6289
1, 6305
1, 6337
1, 6305
1, 6321
1, 6305
1, 6273
1, 6289
1, 6241
1, 6225
1, 6209
1, 6209
1, 6241
1, 6209
1, 6225
1, 6209
1, 6209
1, 6177
1, 6177
1, 6145
1, 6145
1, 6129
1, 6145
1, 6145
1, 6097
1, 6081
1, 6065
1, 6081
1, 6081
1, 6049
1, 6033
1, 6049
1, 6033
1, 6081
1, 6065
1, 6097
1, 6033
1, 6033
1, 6049
1, 6081
1, 6049
1, 6017
1, 6017
1, 6001
1, 5985
1, 6017
1, 6001
1, 6001
1, 5985
1, 5985
1, 5985
1, 5969
1, 5937
1, 5937
1, 5921
1, 5937
1, 5921
1, 5905
1, 5921
1, 5921
1, 5905
1, 5905
1, 5921
1, 5937
1, 5937
1, 5921
1, 5953
1, 5921
1, 5953
1, 5937
1, 5937
1, 5953
1, 5937
1, 5921
1, 5953
1, 5953
1, 5921
1, 5921
1, 5969
1, 5953
1, 5969
1, 5985
1, 5937
1, 5953
1, 5953
1, 5953
1, 5969
1, 5985
1, 5937
1, 5953
1, 5953
1, 5953
1, 5969
1, 5969
1, 5969
1, 5969
1, 5937
1, 6001
1, 6001
1, 6001
1, 6017
1, 6049
1, 6017
1, 6161
1, 6257
1, 6321
1, 6385
1, 6353
1, 6401
1, 6401
1, 6401
1, 6385
1, 6401
1, 6481
1, 6513
1, 6497
1, 6481
1, 6449
1, 6449
1, 6545
1, 6641
1, 6609
1, 6625
1, 6641
1, 6641
1, 6657
1, 6689
1, 6817
1, 6865
1, 6817
1, 6913
1, 7009
1, 7025
1, 7089
1, 7105
1, 7121
1, 7137
1, 7105
1, 7201
1, 7201
1, 7265
1, 7553
1, 7649
1, 7889
1, 7953
1, 8097
1, 8081
1, 8097
1, 8210
1, 8242
1, 8226
1, 8258
1, 8274
1, 8242
1, 8194
1, 8210
1, 8210
1, 8274
1, 8274
1, 8274
1, 8258
1, 8306
1, 8290
1, 8290
1, 8402
1, 8370
1, 8354
1, 8450
1, 8418
1, 8434
1, 8418
1, 8370
1, 8402
1, 8402
1, 8402
1, 8386
1, 8418
1, 8402
1, 8530
1, 8738
1, 8754
1, 8866
1, 8850
1, 8866
1, 8834
1, 8818
1, 8850
1, 8850
1, 8818
1, 8802
1, 9026
1, 9074
1, 9106
1, 9090
1, 9042
1, 8994
1, 8978
1, 8898
1, 8866
1, 8802
1, 8754
1, 8770
1, 8690
1, 8690
1, 8578
1, 8546
1, 8530
1, 8466
1, 8546
1, 8578
1, 8610
1, 8674
1, 8706
1, 8722
1, 8706
1, 8674
1, 8626
1, 8674
1, 8658
1, 8626
1, 8546
1, 8546
1, 8530
1, 8546
1, 8562
1, 8562
1, 8514
1, 8562
1, 8546
1, 8498
1, 8402
1, 8402
1, 8338
1, 8306
1, 8290
1, 8290
1, 8258
1, 8210
1, 8194
1, 8145
1, 8113
1, 8129
1, 8113
1, 8161
1, 8113
1, 8113
1, 8097
1, 8049
1, 8033
1, 7969
1, 7905
1, 7889
1, 7873
1, 7841
1, 7761
1, 7745
1, 7761
1, 7729
1, 7713
1, 7665
1, 7601
1, 7601
1, 7601
1, 7537
1, 7553
1, 7505
1, 7489
1, 7425
1, 7393
1, 7393
1, 7393
1, 7361
1, 7345
1, 7329
1, 7313
1, 7281
1, 7249
1, 7281
1, 7217
1, 7233
1, 7185
1, 7185
1, 7185
1, 7169
1, 7169
1, 7121
1, 7105
1, 7121
1, 7137
1, 7089
1, 7153
1, 7185
1, 7169
1, 7137
1, 7121
1, 7121
1, 7137
1, 7153
1, 7105
1, 7137
1, 7137
1, 7185
1, 7281
1, 7313
1, 7281
1, 7265
1, 7249
1, 7217
1, 7185
1, 7169
1, 7185
1, 7153
1, 7121
1, 7089
1, 7073
1, 7041
1, 7041
1, 7089
1, 7105
1, 7105
1, 7121
1, 7089
1, 7057
1, 7041
1, 7025
1, 6993
1, 6977
1, 6929
1, 6945
1, 6929
1, 6929
1, 6929
1, 6929
1, 6913
1, 6881
1, 6849
1, 6881
1, 6849
1, 6849
1, 6849
1, 6833
1, 6833
1, 6801
1, 6785
1, 6785
1, 6817
1, 6801
1, 6785
1, 6801
1, 6801
1, 6801
1, 6769
1, 6785
1, 6785
1, 6801
1, 6801
1, 6769
1, 6785
1, 6753
1, 6737
1, 6705
1, 6721
1, 6705
1, 6705
1, 6673
1, 6657
1, 6689
1, 6657
1, 6673
1, 6737
1, 6753
1, 6785
1, 6801
1, 6785
1, 6801
1, 6769
1, 6785
1, 6705
1, 6705
1, 6689
1, 6673
1, 6705
1, 6769
1, 6817
1, 6833
1, 6817
1, 6817
1, 6801
1, 6769
1, 6817
1, 6769
1, 6753
1, 6833
1, 6801
1, 6769
1, 6753
1, 6801
1, 6849
1, 6817
1, 6817
1, 6833
1, 6817
1, 6849
1, 6849
1, 6817
1, 6817
1, 6801
1, 6769
1, 6769
1, 6737
1, 6721
1, 6689
1, 6705
1, 6721
1, 6657
1, 6705
1, 6769
1, 6753
1, 6737
1, 6705
1, 6689
1, 6673
1, 6657
1, 6641
1, 6609
1, 6609
1, 6577
1, 6577
1, 6545
1, 6529
1, 6497
1, 6497
1, 6497
1, 6481
1, 6465
1, 6465
1, 6449
1, 6449
1, 6401
1, 6385
1, 6337
1, 6353
1, 6369
1, 6337
1, 6321
1, 6321
1, 6289
1, 6289
1, 6289
1, 6289
1, 6305
1, 6289
1, 6273
1, 6257
1, 6257
1, 6209
1, 6193
1, 6209
1, 6193
1, 6145
1, 6145
1, 6145
1, 6113
1, 6081
1, 6081
1, 6081
1, 6097
1, 6081
1, 6081
1, 6065
1, 6209
1, 6273
1, 6289
1, 6273
1, 6257
1, 6225
1, 6241
1, 6209
1, 6177
1, 6177
1, 6177
1, 6145
1, 6145
1, 6129
1, 6113
1, 6097
1, 6113
1, 6113
1, 6161
1, 6129
1, 6145
1, 6113
1, 6081
1, 6081
1, 6081
1, 6033
1, 6065
1, 6113
1, 6081
1, 6145
1, 6113
1, 6113
1, 6113
1, 6065
1, 6065
1, 6065
1, 6113
1, 6193
1, 6193
1, 6193
1, 6177
1, 6193
1, 6161
1, 6177
1, 6225
1, 6257
1, 6257
1, 6257
1, 6273
1, 6241
1, 6289
1, 6273
1, 6289
1, 6273
1, 6337
1, 6321
1, 6289
1, 6305
1, 6337
1, 6353
1, 6369
1, 6305
1, 6321
1, 6273
1, 6305
1, 6321
1, 6305
1, 6257
1, 6289
1, 6273
1, 6321
1, 6273
1, 6241
1, 6241
1, 6241
1, 6257
1, 6257
1, 6209
1, 6225
1, 6241
1, 6225
1, 6241
1, 6225
1, 6161
1, 6225
1, 6241
1, 6257
1, 6273
1, 6257
1, 6257
1, 6225
1, 6241
1, 6241
1, 6193
1, 6225
1, 6193
1, 6225
1, 6177
1, 6177
1, 6193
1, 6177
1, 6161
1, 6145
1, 6177
1, 6129
1, 6161
1, 6145
1, 6161
1, 6225
1, 6209
1, 6289
1, 6337
1, 6321
1, 6321
1, 6337
1, 6321
1, 6337
1, 6337
1, 6305
1, 6305
1, 6321
1, 6369
1, 6369
1, 6337
1, 6369
1, 6321
1, 6353
1, 6337
1, 6337
1, 6353
1, 6321
1, 6321
1, 6337
1, 6385
1, 6433
1, 6433
1, 6465
1, 6481
1, 6465
1, 6465
1, 6433
1, 6433
1, 6433
1, 6433
1, 6481
1, 6529
1, 6529
1, 6545
1, 6513
1, 6513
1, 6545
1, 6625
1, 6609
1, 6577
1, 6577
1, 6625
1, 6609
1, 6641
1, 6625
1, 6625
1, 6641
1, 6625
1, 6673
1, 6689
1, 6689
1, 6625
1, 6625
1, 6593
1, 6609
1, 6561
1, 6593
1, 6593
1, 6529
1, 6561
1, 6545
1, 6529
1, 6497
1, 6449
1, 6465
1, 6417
1, 6417
1, 6401
1, 6433
1, 6465
1, 6449
1, 6401
1, 6481
1, 6497
1, 6481
1, 6449
1, 6449
1, 6433
1, 6401
1, 6417
1, 6449
1, 6449
1, 6449
1, 6449
1, 6385
1, 6369
1, 6353
1, 6369
1, 6401
1, 6369
1, 6369
1, 6321
1, 6321
1, 6369
1, 6337
1, 6305
1, 6369
1, 6337
1, 6321
1, 6305
1, 6273
1, 6273
1, 6273
1, 6225
1, 6209
1, 6209
1, 6193
1, 6177
1, 6145
1, 6177
1, 6209
1, 6161
1, 6161
1, 6161
1, 6129
1, 6145
1, 6177
1, 6177
1, 6129
1, 6145
1, 6129
1, 6225
1, 6209
1, 6209
1, 6209
1, 6193
1, 6177
1, 6145
1, 6129
1, 6129
1, 6177
1, 6209
1, 6193
1, 6177
1, 6177
1, 6161
1, 6193
1, 6177
1, 6209
1, 6177
1, 6145
1, 6129
1, 6177
1, 6145
1, 6145
1, 6177
1, 6129
1, 6129
1, 6129
1, 6097
1, 6081
1, 6097
1, 6065
1, 6081
1, 6097
1, 6065
1, 6081
1, 6113
1, 6129
1, 6129
1, 6097
1, 6113
1, 6081
1, 6097
1, 6097
1, 6113
1, 6081
1, 6081
1, 6113
1, 6113
1, 6129
1, 6129
1, 6145
1, 6161
1, 6145
1, 6129
1, 6145
1, 6145
1, 6145
1, 6161
1, 6161
1, 6145
1, 6113
1, 6129
1, 6113
1, 6113
1, 6081
1, 6113
1, 6065
1, 6081
1, 6081
1, 6081
1, 6097
1, 6097
1, 6081
1, 6065
1, 6065
1, 6081
1, 6113
1, 6129
1, 6113
1, 6081
1, 6081
1, 6081
1, 6065
1, 6113
1, 6129
1, 6097
1, 6113
1, 6113
1, 6129
1, 6097
1, 6113
1, 6113
1, 6097
1, 6113
1, 6097
1, 6097
1, 6081
1, 6081
1, 6081
1, 6049
1, 6113
1, 6097
1, 6081
1, 6049
1, 6081
1, 6129
1, 6129
1, 6081
1, 6113
1, 6113
1, 6081
1, 6081
1, 6097
1, 6097
1, 6081
1, 6097
1, 6097
1, 6081
1, 6097
1, 6113
1, 6081
1, 6097
1, 6081
1, 6081
1, 6033
1, 6097
1, 6065
1, 6081
1, 6033
1, 6017
1, 6033
1, 6017
1, 6001
1, 5985
1, 6017
1, 6001
1, 6001
1, 5985
1, 5985
1, 5969
1, 5969
1, 5969
1, 5953
1, 5953
1, 5969
1, 5921
1, 5937
1, 5937
1, 5905
1, 5905
1, 5921
1, 5937
1, 5985
1, 5953
1, 5921
1, 5905
1, 5905
1, 5937
1, 5937
1, 5953
1, 5953
1, 5953
1, 5937
1, 5921
1, 5937
1, 5953
1, 5985
1, 5969
1, 5953
1, 5953
1, 5969
1, 6001
1, 6065
1, 6097
1, 6081
1, 6081
1, 6193
1, 6209
1, 6321
1, 6497
1, 6497
1, 6609
1, 6593
1, 6593
1, 6625
1, 6593
1, 6625
1, 6657
1, 6657
1, 6705
1, 6673
1, 6753
1, 6817
1, 6769
1, 6753
1, 6769
1, 6801
1, 6785
1, 6801
1, 6785
1, 6753
1, 6833
1, 6945
1, 7041
1, 7105
1, 7137
1, 7121
1, 7073
1, 7105
1, 7105
1, 7137
1, 7169
1, 7201
1, 7201
1, 7329
1, 7441
1, 7585
1, 7665
1, 7761
1, 7841
1, 7809
1, 7889
1, 8017
1, 8001
1, 7953
1, 7969
1, 8001
1, 7953
1, 7985
1, 8049
1, 8097
1, 8097
1, 8129
1, 8194
1, 8113
1, 8113
1, 8097
1, 8129
1, 8081
1, 8113
1, 8097
1, 8129
1, 8145
1, 8129
1, 8177
1, 8226
1, 8226
1, 8370
1, 8450
1, 8386
1, 8450
1, 8450
1, 8450
1, 8530
1, 8578
1, 8610
1, 8578
1, 8546
1, 8514
1, 8482
1, 8466
1, 8418
1, 8418
1, 8386
1, 8370
1, 8338
1, 8306
1, 8274
1, 8258
1, 8226
1, 8177
1, 8113
1, 8113
1, 8097
1, 8081
1, 8065
1, 8017
1, 8017
1, 8017
1, 8049
1, 8001
1, 8017
1, 8194
1, 8194
1, 8226
1, 8226
1, 8177
1, 8194
1, 8145
1, 8113
1, 8081
1, 8065
1, 8065
1, 7985
1, 7969
1, 7953
1, 7937
1, 7921
1, 7889
1, 7857
1, 7841
1, 7825
1, 7809
1, 7857
1, 7857
1, 7825
1, 7825
1, 7793
1, 7793
1, 7761
1, 7713
1, 7681
1, 7665
1, 7665
1, 7649
1, 7617
1, 7601
1, 7537
1, 7553
1, 7553
1, 7505
1, 7489
1, 7457
1, 7473
1, 7457
1, 7409
1, 7393
1, 7329
1, 7345
1, 7377
1, 7329
1, 7297
1, 7281
1, 7281
1, 7233
1, 7233
1, 7185
1, 7169
1, 7137
1, 7137
1, 7121
1, 7105
1, 7105
1, 7105
1, 7073
1, 7089
1, 7121
1, 7137
1, 7105
1, 7105
1, 7105
1, 7121
1, 7153
1, 7121
1, 7089
1, 7073
1, 7041
1, 7041
1, 7009
1, 6993
1, 7009
1, 6993
1, 6945
1, 6945
1, 6929
1, 6929
1, 6865
1, 6849
1, 6833
1, 6817
1, 6801
1, 6753
1, 6753
1, 6721
1, 6737
1, 6705
1, 6705
1, 6753
1, 6769
1, 6737
1, 6881
1, 6977
1, 6961
1, 6945
1, 6897
1, 6881
1, 6913
1, 6881
1, 6849
1, 6817
1, 6785
1, 6785
1, 6753
1, 6769
1, 6737
1, 6721
1, 6737
1, 6705
1, 6673
1, 6657
1, 6641
1, 6625
1, 6577
1, 6561
1, 6593
1, 6609
1, 6609
1, 6593
1, 6577
1, 6593
1, 6545
1, 6545
1, 6529
1, 6545
1, 6481
1, 6481
1, 6465
1, 6449
1, 6449
1, 6417
1, 6417
1, 6369
1, 6353
1, 6353
1, 6353
1, 6337
1, 6321
1, 6305
1, 6305
1, 6305
1, 6289
1, 6257
1, 6241
1, 6273
1, 6257
1, 6241
1, 6241
1, 6241
1, 6209
1, 6193
1, 6193
1, 6161
1, 6161
1, 6161
1, 6145
1, 6145
1, 6145
1, 6161
1, 6113
1, 6129
1, 6129
1, 6113
1, 6113
1, 6081
1, 6097
1, 6081
1, 6017
1, 6033
1, 6033
1, 6049
1, 6049
1, 6065
1, 6049
1, 6033
1, 6049
1, 6017
1, 6017
1, 6017
1, 6001
1, 6001
1, 6001
1, 5985
1, 5985
1, 5969
1, 5985
1, 5985
1, 5985
1, 6017
1, 5985
1, 5969
1, 5953
1, 5905
1, 5921
1, 5953
1, 5953
1, 5953
1, 5937
1, 5937
1, 5937
1, 5937
1, 5921
1, 5905
1, 5921
1, 5953
1, 5921
1, 5905
1, 5905
1, 5889
1, 5921
1, 5921
1, 5905
1, 5905
1, 5905
1, 5889
1, 5905
1, 5905
1, 5905
1, 5905
1, 5889
1, 5889
1, 5873
1, 5841
1, 5857
1, 5857
1, 5825
1, 5841
1, 5857
1, 5825
1, 5857
1, 5825
1, 5809
1, 5825
1, 5825
1, 5857
1, 5841
1, 5873
1, 5889
1, 5905
1, 5905
1, 5889
1, 5921
1, 5921
1, 5953
1, 5921
1, 5921
1, 5921
1, 5937
1, 5953
1, 5905
1, 5937
1, 5921
1, 5937
1, 5905
1, 5889
1, 5905
1, 5905
1, 5905
1, 5905
1, 5921
1, 5889
1, 5889
1, 5905
1, 5905
1, 5889
1, 5905
1, 5937
1, 5953
1, 5985
1, 5953
1, 5937
1, 5921
1, 5921
1, 5921
1, 5921
1, 5905
1, 5905
1, 5905
1, 5889
