2, 8258
2, 8274
2, 8258
2, 8226
2, 8242
2, 8242
2, 8242
2, 8226
2, 8290
2, 8306
2, 8354
2, 8338
2, 8354
2, 8322
2, 8306
2, 8322
2, 8338
2, 8322
2, 8322
2, 8290
2, 8274
2, 8242
2, 8226
2, 8210
2, 8194
2, 8226
2, 8194
2, 8161
2, 8145
2, 8129
2, 8113
2, 8097
2, 8097
2, 8113
2, 8097
2, 8113
2, 8097
2, 8113
2, 8081
2, 8129
2, 8145
2, 8097
2, 8097
2, 8113
2, 8129
2, 8113
2, 8097
2, 8081
2, 8065
2, 8033
2, 8097
2, 8097
2, 8097
2, 8081
2, 8033
2, 8065
2, 8049
2, 8017
2, 8017
2, 8001
2, 8001
2, 8113
2, 8097
2, 8145
2, 8113
2, 8113
2, 8097
2, 8097
2, 8081
2, 8097
2, 8097
2, 8049
2, 8017
2, 8017
2, 8001
2, 8049
2, 8033
2, 8065
2, 8065
2, 8097
2, 8113
2, 8097
2, 8081
2, 8129
2, 8113
2, 8113
2, 8113
2, 8097
2, 8177
2, 8194
2, 8177
2, 8194
2, 8161
2, 8177
2, 8194
2, 8161
2, 8194
2, 8194
2, 8194
2, 8177
2, 8177
2, 8177
2, 8161
2, 8194
2, 8177
2, 8210
2, 8258
2, 8226
2, 8226
2, 8274
2, 8338
2, 8418
2, 8370
2, 8418
2, 8482
2, 8466
2, 8514
2, 8482
2, 8482
2, 8466
2, 8498
2, 8498
2, 8482
2, 8514
2, 8498
2, 8530
2, 8514
2, 8546
2, 8546
2, 8594
2, 8610
2, 8578
2, 8530
2, 8594
2, 8514
2, 8562
2, 8594
2, 8610
2, 8610
2, 8626
2, 8610
2, 8594
2, 8578
2, 8626
2, 8642
2, 8642
2, 8642
2, 8626
2, 8642
2, 8610
2, 8642
2, 8626
2, 8626
2, 8610
2, 8626
2, 8658
2, 8642
2, 8562
2, 8562
2, 8642
2, 8658
2, 8594
2, 8610
2, 8578
2, 8578
2, 8658
2, 8626
2, 8610
2, 8578
2, 8594
2, 8674
2, 8658
2, 8642
2, 8674
2, 8658
2, 8658
2, 8754
2, 8802
2, 8802
2, 8770
2, 8770
2, 8754
2, 8738
2, 8786
2, 8770
2, 8770
2, 8802
2, 8802
2, 8834
2, 8818
2, 8770
2, 8770
2, 8834
2, 8850
2, 8818
2, 8834
2, 8850
2, 8834
2, 8850
2, 8914
2, 8930
2, 8882
2, 8882
2, 8898
2, 8866
2, 8866
2, 8850
2, 8834
2, 8818
2, 8850
2, 8882
2, 8850
2, 8882
2, 8850
2, 8834
2, 8818
2, 8802
2, 8818
2, 8818
2, 8802
2, 8786
2, 8770
2, 8786
2, 8802
2, 8770
2, 8770
2, 8770
2, 8738
2, 8722
2, 8738
2, 8722
2, 8706
2, 8706
2, 8722
2, 8706
2, 8690
2, 8706
2, 8722
2, 8754
2, 8738
2, 8738
2, 8706
2, 8706
2, 8754
2, 8770
2, 8786
2, 8754
2, 8754
2, 8786
2, 8786
2, 8786
2, 8786
2, 8786
2, 8770
2, 8754
2, 8770
2, 8738
2, 8770
2, 8786
2, 8786
2, 8786
2, 8770
2, 8770
2, 8770
2, 8754
2, 8754
2, 8770
2, 8754
2, 8738
2, 8722
2, 8738
2, 8754
2, 8754
2, 8770
2, 8786
2, 8770
2, 8770
2, 8770
2, 8738
2, 8770
2, 8770
2, 8770
2, 8770
2, 8770
2, 8786
2, 8754
2, 8770
2, 8770
2, 8770
2, 8786
2, 8770
2, 8754
2, 8770
2, 8770
2, 8802
2, 8786
2, 8754
2, 8738
2, 8802
2, 8802
2, 8834
2, 8802
2, 8818
2, 8786
2, 8786
2, 8834
2, 8802
2, 8802
2, 8802
2, 8802
2, 8802
2, 8850
2, 8834
2, 8802
2, 8834
2, 8866
2, 8898
2, 8882
2, 8882
2, 8850
2, 8818
2, 8850
2, 8866
2, 8850
2, 8834
2, 8834
2, 8882
2, 8962
2, 8978
2, 8946
2, 9010
2, 9010
2, 9026
2, 9106
2, 9106
2, 9122
2, 9122
2, 9138
2, 9138
2, 9122
2, 9106
2, 9106
2, 9090
2, 9090
2, 9154
2, 9122
2, 9138
2, 9122
2, 9122
2, 9106
2, 9106
2, 9106
2, 9138
2, 9170
2, 9234
2, 9362
2, 9330
2, 9314
2, 9410
2, 9394
2, 9410
2, 9506
2, 9570
2, 9554
2, 9522
2, 9522
2, 9474
2, 9442
2, 9442
2, 9458
2, 9474
2, 9506
2, 9522
2, 9586
2, 9554
2, 9554
2, 9538
2, 9570
2, 9538
2, 9570
2, 9602
2, 9618
2, 9618
2, 9698
2, 9666
2, 9650
2, 9698
2, 9794
2, 9730
2, 9714
2, 9714
2, 9698
2, 9730
2, 9666
2, 9650
2, 9650
2, 9650
2, 9666
2, 9666
2, 9682
2, 9698
2, 9650
2, 9682
2, 9794
2, 9762
2, 9746
2, 9810
2, 9842
2, 9874
2, 9826
2, 9826
2, 9826
2, 9874
2, 9810
2, 9842
2, 9778
2, 9778
2, 9762
2, 9746
2, 9794
2, 9954
2, 9986
2, 9986
2, 10018
2, 9986
2, 9986
2, 10018
2, 10002
2, 9970
2, 9970
2, 10066
2, 10034
2, 10050
2, 10082
2, 10082
2, 10050
2, 10034
2, 10002
2, 10002
2, 10002
2, 10018
2, 9986
2, 9970
2, 9954
2, 9922
2, 9922
2, 9906
2, 9890
2, 9858
2, 9922
2, 9922
2, 10050
2, 10146
2, 10098
2, 10066
2, 10050
2, 10018
2, 10034
2, 10002
2, 9954
2, 9986
2, 9954
2, 9922
2, 9890
2, 9874
2, 9842
2, 9874
2, 9906
2, 9906
2, 9906
2, 9890
2, 9858
2, 9810
2, 9810
2, 9794
2, 9794
2, 9778
2, 9762
2, 9762
2, 9762
2, 9762
2, 9730
2, 9698
2, 9698
2, 9666
2, 9650
2, 9618
2, 9650
2, 9666
2, 9634
2, 9666
2, 9698
2, 9714
2, 9730
2, 9762
2, 9826
2, 9794
2, 9842
2, 9938
2, 9970
2, 10162
2, 10178
2, 10178
2, 10162
2, 10146
2, 10178
2, 10130
2, 10098
2, 10082
2, 10082
2, 10082
2, 10050
2, 10050
2, 10082
2, 10130
2, 10114
2, 10082
2, 10098
2, 10082
2, 10066
2, 10146
2, 10194
2, 10178
2, 10146
2, 10130
2, 10146
2, 10114
2, 10082
2, 10050
2, 10050
2, 10034
2, 10050
2, 10066
2, 10066
2, 10066
2, 10018
2, 10002
2, 10002
2, 10050
2, 10034
2, 9986
2, 9954
2, 9986
2, 9954
2, 9922
2, 9986
2, 9970
2, 10082
2, 10098
2, 10146
2, 10114
2, 10098
2, 10066
2, 10034
2, 10002
2, 10002
2, 9954
2, 9938
2, 9954
2, 9906
2, 9890
2, 9858
2, 9842
2, 9858
2, 9842
2, 9890
2, 9906
2, 9874
2, 9858
2, 9858
2, 9858
2, 9842
2, 9858
2, 9890
2, 9874
2, 9890
2, 9874
2, 9874
2, 9826
2, 9842
2, 9842
2, 9826
2, 9794
2, 9794
2, 9794
2, 9762
2, 9714
2, 9746
2, 9730
2, 9714
2, 9762
2, 9698
2, 9682
2, 9650
2, 9634
2, 9634
2, 9618
2, 9586
2, 9554
2, 9586
2, 9634
2, 9618
2, 9602
2, 9618
2, 9586
2, 9602
2, 9602
2, 9570
2, 9602
2, 9586
2, 9634
2, 9602
2, 9586
2, 9586
2, 9570
2, 9570
2, 9570
2, 9538
2, 9538
2, 9506
2, 9538
2, 9522
2, 9538
2, 9538
2, 9554
2, 9554
2, 9522
2, 9554
2, 9586
2, 9586
2, 9586
2, 9570
2, 9570
2, 9602
2, 9586
2, 9586
2, 9538
2, 9522
2, 9522
2, 9522
2, 9506
2, 9506
2, 9474
2, 9490
2, 9506
2, 9506
2, 9554
2, 9554
2, 9554
2, 9554
2, 9570
2, 9522
2, 9538
2, 9522
2, 9522
2, 9506
2, 9506
2, 9490
2, 9442
2, 9426
2, 9410
2, 9426
2, 9410
2, 9394
2, 9410
2, 9378
2, 9426
2, 9442
2, 9458
2, 9458
2, 9474
2, 9442
2, 9490
2, 9458
2, 9458
2, 9442
2, 9426
2, 9426
2, 9426
2, 9458
2, 9442
2, 9442
2, 9474
2, 9522
2, 9522
2, 9522
2, 9522
2, 9458
2, 9474
2, 9442
2, 9410
2, 9458
2, 9458
2, 9490
2, 9570
2, 9538
2, 9554
2, 9570
2, 9554
2, 9570
2, 9538
2, 9522
2, 9538
2, 9570
2, 9554
2, 9538
2, 9538
2, 9570
2, 9570
2, 9570
2, 9554
2, 9522
2, 9538
2, 9506
2, 9506
2, 9490
2, 9458
2, 9474
2, 9474
2, 9442
2, 9394
2, 9394
2, 9378
2, 9378
2, 9378
2, 9378
2, 9410
2, 9442
2, 9426
2, 9410
2, 9442
2, 9474
2, 9522
2, 9586
2, 9666
2, 9602
2, 9602
2, 9650
2, 9682
2, 9682
2, 9666
2, 9666
2, 9682
2, 9634
2, 9634
2, 9650
2, 9682
2, 9666
2, 9634
2, 9666
2, 9634
2, 9618
2, 9570
2, 9570
2, 9554
2, 9538
2, 9538
2, 9538
2, 9538
2, 9570
2, 9698
2, 9730
2, 9714
2, 9730
2, 9746
2, 9714
2, 9762
2, 9746
2, 9698
2, 9698
2, 9698
2, 9778
2, 9826
2, 9810
2, 9794
2, 9794
2, 9778
2, 9762
2, 9746
2, 9730
2, 9698
2, 9666
2, 9666
2, 9634
2, 9634
2, 9618
2, 9602
2, 9618
2, 9586
2, 9570
2, 9570
2, 9554
2, 9554
2, 9506
2, 9506
2, 9522
2, 9506
2, 9522
2, 9522
2, 9474
2, 9458
2, 9442
2, 9378
2, 9394
2, 9362
2, 9346
2, 9426
2, 9426
2, 9426
2, 9490
2, 9522
2, 9490
2, 9490
2, 9490
2, 9490
2, 9442
2, 9458
2, 9442
2, 9442
2, 9426
2, 9346
2, 9394
2, 9394
2, 9378
2, 9362
2, 9378
2, 9362
2, 9362
2, 9346
2, 9346
2, 9346
2, 9314
2, 9314
2, 9330
2, 9330
2, 9298
2, 9266
2, 9266
2, 9250
2, 9250
2, 9234
2, 9218
2, 9202
2, 9186
2, 9218
2, 9154
2, 9170
2, 9154
2, 9122
2, 9138
2, 9250
2, 9266
2, 9250
2, 9266
2, 9250
2, 9282
2, 9282
2, 9282
2, 9298
2, 9266
2, 9282
2, 9282
2, 9298
2, 9282
2, 9282
2, 9266
2, 9282
2, 9266
2, 9250
2, 9266
2, 9250
2, 9234
2, 9234
2, 9218
2, 9218
2, 9186
2, 9186
2, 9186
2, 9202
2, 9202
2, 9186
2, 9170
2, 9170
2, 9154
2, 9138
2, 9138
2, 9154
2, 9154
2, 9122
2, 9106
2, 9090
2, 9074
2, 9074
2, 9090
2, 9122
2, 9074
2, 9058
2, 9026
2, 9026
2, 9026
2, 9010
2, 9010
2, 8978
2, 8994
2, 8994
2, 9026
2, 8978
2, 8978
2, 8946
2, 8898
2, 8946
2, 8914
2, 8898
2, 8866
2, 8866
2, 8898
2, 8930
2, 8914
2, 8898
2, 8866
2, 8850
2, 8882
2, 8882
2, 8866
2, 8850
2, 8850
2, 8898
2, 8850
2, 8866
2, 8882
2, 8882
2, 8866
2, 8850
2, 8850
2, 8850
2, 8834
2, 8850
2, 8850
2, 8866
2, 8850
2, 8834
2, 8802
2, 8818
2, 8786
2, 8770
2, 8802
2, 8818
2, 8834
2, 8802
2, 8850
2, 8866
2, 8834
2, 8834
2, 8834
2, 8866
2, 8850
2, 8834
2, 8802
2, 8850
2, 8834
2, 8802
2, 8786
2, 8786
2, 8786
2, 8786
2, 8770
2, 8786
2, 8754
2, 8770
2, 8738
2, 8738
2, 8754
2, 8754
2, 8754
2, 8770
2, 8738
2, 8722
2, 8770
2, 8754
2, 8754
2, 8770
2, 8754
2, 8738
2, 8802
2, 8802
2, 8786
2, 8818
2, 8802
2, 8882
2, 8850
2, 8882
2, 8818
2, 8802
2, 8802
2, 8818
2, 8818
2, 8802
2, 8802
2, 8818
2, 8802
2, 8786
2, 8786
2, 8754
2, 8786
2, 8770
2, 8770
2, 8770
2, 8738
2, 8738
2, 8722
2, 8738
2, 8722
2, 8706
2, 8706
2, 8690
2, 8706
2, 8770
2, 8738
2, 8754
2, 8738
2, 8722
2, 8706
2, 8770
2, 8754
2, 8722
2, 8722
2, 8722
2, 8738
2, 8722
2, 8706
2, 8706
2, 8706
2, 8690
2, 8738
2, 8706
2, 8690
2, 8722
2, 8706
2, 8738
2, 8706
2, 8722
2, 8706
2, 8722
2, 8690
2, 8674
2, 8658
2, 8674
2, 8658
2, 8642
2, 8658
2, 8642
2, 8674
2, 8642
2, 8642
2, 8674
2, 8642
2, 8642
2, 8658
2, 8626
2, 8642
2, 8658
2, 8674
2, 8658
2, 8642
2, 8626
2, 8610
2, 8658
2, 8658
2, 8642
2, 8610
2, 8658
2, 8626
2, 8594
2, 8626
2, 8642
2, 8658
2, 8642
2, 8706
2, 8690
2, 8658
2, 8674
2, 8658
2, 8674
2, 8690
2, 8674
2, 8674
2, 8722
2, 8690
2, 8658
2, 8658
2, 8658
2, 8642
2, 8626
2, 8642
2, 8658
2, 8658
2, 8674
2, 8658
2, 8642
2, 8642
2, 8626
2, 8610
2, 8658
2, 8594
2, 8610
2, 8642
2, 8626
2, 8610
2, 8610
2, 8610
2, 8594
2, 8626
2, 8642
2, 8626
2, 8626
2, 8642
2, 8642
2, 8642
2, 8658
2, 8626
2, 8626
2, 8610
2, 8674
2, 8674
2, 8642
2, 8658
2, 8658
2, 8642
2, 8642
2, 8626
2, 8626
2, 8626
2, 8642
2, 8690
2, 8690
2, 8674
2, 8706
2, 8690
2, 8674
2, 8658
2, 8658
2, 8658
2, 8658
2, 8642
2, 8626
2, 8642
2, 8626
2, 8626
2, 8626
2, 8642
2, 8658
2, 8642
2, 8610
2, 8610
2, 8610
2, 8626
2, 8610
2, 8626
2, 8610
2, 8610
2, 8594
2, 8610
2, 8594
2, 8594
2, 8578
2, 8594
2, 8610
2, 8562
2, 8594
2, 8610
2, 8578
2, 8562
2, 8546
2, 8546
2, 8546
2, 8562
2, 8578
2, 8578
2, 8562
2, 8562
2, 8546
2, 8546
2, 8562
2, 8530
2, 8546
2, 8530
2, 8530
2, 8514
2, 8546
2, 8578
2, 8578
2, 8562
2, 8578
2, 8578
2, 8578
2, 8546
2, 8562
2, 8546
2, 8562
2, 8578
2, 8546
2, 8546
2, 8546
2, 8546
2, 8530
2, 8546
2, 8498
2, 8482
2, 8498
2, 8482
2, 8498
2, 8514
2, 8514
2, 8514
2, 8514
2, 8498
2, 8530
2, 8514
2, 8514
2, 8514
2, 8482
2, 8482
2, 8482
2, 8466
2, 8482
2, 8450
2, 8466
2, 8466
2, 8450
2, 8466
2, 8466
2, 8450
2, 8434
2, 8450
2, 8450
2, 8466
2, 8466
2, 8466
2, 8466
2, 8450
2, 8418
2, 8434
2, 8482
2, 8450
2, 8466
2, 8482
2, 8514
2, 8482
2, 8482
2, 8466
2, 8466
2, 8450
2, 8466
2, 8450
2, 8482
2, 8482
2, 8450
2, 8466
2, 8450
2, 8450
2, 8498
2, 8578
2, 8562
2, 8546
2, 8530
2, 8514
2, 8530
2, 8514
2, 8498
2, 8482
2, 8498
2, 8482
2, 8466
2, 8498
2, 8498
2, 8498
2, 8482
2, 8498
2, 8514
2, 8562
2, 8578
2, 8530
2, 8530
2, 8530
2, 8514
2, 8498
2, 8546
2, 8498
2, 8514
2, 8514
2, 8514
2, 8498
2, 8482
2, 8498
2, 8530
2, 8498
2, 8530
2, 8546
2, 8546
2, 8546
2, 8546
2, 8530
2, 8514
2, 8514
2, 8546
2, 8546
2, 8530
2, 8514
2, 8514
2, 8498
2, 8546
2, 8498
2, 8530
2, 8530
2, 8514
2, 8530
2, 8546
2, 8594
2, 8626
2, 8658
2, 8674
2, 8658
2, 8674
2, 8674
2, 8674
2, 8642
2, 8626
2, 8658
2, 8658
2, 8658
2, 8642
2, 8642
2, 8642
2, 8658
2, 8658
2, 8658
2, 8658
2, 8642
2, 8658
2, 8642
2, 8642
2, 8658
2, 8754
2, 8706
2, 8802
2, 8754
2, 8770
2, 8770
2, 8770
2, 8754
2, 8754
2, 8738
2, 8738
2, 8706
2, 8754
2, 8754
2, 8738
2, 8706
2, 8690
2, 8706
2, 8738
2, 8738
2, 8706
2, 8706
2, 8706
2, 8706
2, 8722
2, 8706
2, 8706
2, 8690
2, 8674
2, 8642
2, 8658
2, 8642
2, 8658
2, 8674
2, 8722
2, 8738
2, 8738
2, 8770
2, 8722
2, 8738
2, 8722
2, 8706
2, 8690
2, 8674
2, 8706
2, 8674
2, 8658
2, 8674
2, 8658
2, 8626
2, 8642
2, 8642
2, 8706
2, 8674
2, 8690
2, 8674
2, 8642
2, 8626
2, 8658
2, 8626
2, 8642
2, 8642
2, 8642
2, 8674
2, 8706
2, 8690
2, 8706
2, 8706
2, 8706
2, 8738
2, 8738
2, 8722
2, 8754
2, 8738
2, 8770
2, 8738
2, 8722
2, 8706
2, 8722
2, 8754
2, 8722
2, 8754
2, 8722
2, 8738
2, 8690
2, 8722
2, 8738
2, 8754
2, 8738
2, 8722
2, 8706
2, 8706
2, 8690
2, 8658
2, 8674
2, 8690
2, 8706
2, 8722
2, 8706
2, 8706
2, 8690
2, 8674
2, 8674
2, 8658
2, 8674
2, 8690
2, 8738
2, 8738
2, 8738
2, 8770
2, 8802
2, 8834
2, 8802
2, 8802
2, 8818
2, 8850
2, 8818
2, 8802
2, 8834
2, 8786
2, 8834
2, 8834
2, 8866
2, 8834
2, 8850
2, 8834
2, 8802
2, 8802
2, 8802
2, 8850
2, 8866
2, 8834
2, 8834
2, 8834
2, 8818
2, 8834
2, 8818
2, 8786
2, 8802
2, 8770
2, 8786
2, 8770
2, 8770
2, 8754
2, 8770
2, 8770
2, 8802
2, 8802
2, 8770
2, 8754
2, 8770
2, 8754
2, 8770
2, 8738
2, 8754
2, 8754
2, 8754
2, 8786
2, 8786
2, 8754
2, 8802
2, 8850
2, 8898
2, 8930
2, 8914
2, 8898
2, 8898
2, 8914
2, 8914
2, 8898
2, 8914
2, 8946
2, 9026
2, 9026
2, 9026
2, 9106
2, 9154
2, 9154
2, 9138
2, 9250
2, 9426
2, 9490
2, 9474
2, 9474
2, 9458
2, 9426
2, 9410
2, 9378
2, 9394
2, 9426
2, 9490
2, 9490
2, 9522
2, 9554
2, 9666
2, 9842
2, 9954
2, 9986
2, 9970
2, 9938
2, 9922
2, 9906
2, 9874
2, 9938
2, 9938
2, 9922
2, 9890
2, 9874
2, 9906
2, 9970
2, 10018
2, 10002
2, 10018
2, 10082
2, 10082
2, 10050
2, 10066
2, 10018
2, 10034
2, 10018
2, 9986
2, 9986
2, 10018
2, 10018
2, 10002
2, 10002
2, 10018
2, 10002
2, 9970
2, 9938
2, 9922
2, 10034
2, 10194
2, 10258
2, 10290
2, 10434
2, 10498
2, 10610
2, 10610
2, 10610
2, 10562
2, 10562
2, 10530
2, 10530
2, 10626
2, 10626
2, 10642
2, 10690
2, 10882
2, 10818
2, 10834
2, 10802
2, 10786
2, 10738
2, 10706
2, 10658
2, 10626
2, 10594
2, 10626
2, 10578
2, 10594
2, 10594
2, 10626
2, 10626
2, 10594
2, 10562
2, 10546
2, 10514
2, 10466
2, 10514
2, 10482
2, 10418
2, 10418
2, 10370
2, 10338
2, 10434
2, 10450
2, 10466
2, 10818
2, 10978
2, 10994
2, 11106
2, 11218
2, 11218
2, 11250
2, 11234
2, 11234
2, 11234
2, 11202
2, 11186
2, 11138
2, 11138
2, 11138
2, 11090
2, 11042
2, 11010
2, 10994
2, 10946
2, 10930
2, 10914
2, 10882
2, 10818
2, 10850
2, 10834
2, 10914
2, 10946
2, 10978
2, 10930
2, 10898
2, 10882
2, 10818
2, 10850
2, 10866
2, 10786
2, 10818
2, 10834
2, 10834
2, 10834
2, 10802
2, 10786
2, 10786
2, 10754
2, 10706
2, 10690
2, 10690
2, 10802
2, 10802
2, 10754
2, 10754
2, 10722
2, 10722
2, 10722
2, 10690
2, 10626
2, 10674
2, 10674
2, 10626
2, 10690
2, 10722
2, 10738
2, 10674
2, 10642
2, 10722
2, 10770
2, 10770
2, 10786
2, 10754
2, 10754
2, 10754
2, 10738
2, 10738
2, 10706
2, 10658
2, 10626
2, 10610
2, 10562
2, 10546
2, 10674
2, 10674
2, 10626
2, 10594
2, 10594
2, 10706
2, 10674
2, 10690
2, 10818
2, 10962
2, 10978
2, 10930
2, 10914
2, 10850
2, 10962
2, 11234
2, 11234
2, 11410
2, 11538
2, 11490
2, 11586
2, 11554
2, 11570
2, 11538
2, 11634
2, 11682
2, 11618
2, 11602
2, 11570
2, 11506
2, 11442
2, 11506
2, 11506
2, 11426
2, 11362
2, 11346
2, 11298
2, 11250
2, 11218
2, 11138
2, 11138
2, 11138
2, 11090
2, 11106
2, 11138
2, 11266
2, 11218
2, 11218
2, 11154
2, 11106
2, 11202
2, 11170
2, 11186
2, 11186
2, 11202
2, 11234
2, 11314
2, 11330
2, 11298
2, 11266
2, 11250
2, 11202
2, 11138
2, 11122
2, 11090
2, 11058
2, 11010
2, 10962
2, 10930
2, 11010
2, 10946
2, 10898
2, 10914
2, 10882
2, 10818
2, 10786
2, 10722
2, 10754
2, 10706
2, 10626
2, 10594
2, 10594
2, 10578
2, 10674
2, 10738
2, 10690
2, 10722
2, 10706
2, 10626
2, 10594
2, 10610
2, 10546
2, 10546
2, 10514
2, 10546
2, 10610
2, 10610
2, 10594
2, 10594
2, 10530
2, 10514
2, 10482
2, 10434
2, 10402
2, 10418
2, 10402
2, 10370
2, 10322
2, 10322
2, 10274
2, 10274
2, 10242
2, 10322
2, 10306
2, 10322
2, 10402
2, 10402
2, 10386
2, 10322
2, 10306
2, 10306
2, 10322
2, 10306
2, 10274
2, 10242
2, 10226
2, 10194
2, 10146
2, 10274
2, 10386
2, 10370
2, 10338
2, 10290
2, 10306
2, 10290
2, 10274
2, 10258
2, 10274
2, 10210
2, 10242
2, 10178
2, 10146
2, 10114
2, 10082
2, 10082
2, 10082
2, 10098
2, 10146
2, 10082
2, 10082
2, 10050
2, 10050
2, 10018
2, 10066
2, 10082
2, 10050
2, 10050
2, 10082
2, 10082
2, 10162
2, 10146
2, 10162
2, 10306
2, 10306
2, 10290
2, 10354
2, 10450
2, 10434
2, 10354
2, 10354
2, 10306
2, 10322
2, 10290
2, 10322
2, 10322
2, 10290
2, 10242
2, 10226
2, 10194
2, 10162
2, 10146
2, 10178
2, 10130
2, 10114
2, 10162
2, 10098
2, 10146
2, 10146
2, 10194
2, 10242
2, 10226
2, 10194
2, 10178
2, 10194
2, 10210
2, 10210
2, 10178
2, 10146
2, 10162
2, 10146
2, 10114
2, 10114
2, 10114
2, 10082
2, 10050
2, 10018
2, 10098
2, 10114
2, 10146
2, 10114
2, 10098
2, 10082
2, 10034
2, 10050
2, 10018
2, 9970
2, 9986
2, 10050
2, 10050
2, 10018
2, 10034
2, 10018
2, 9986
2, 9970
2, 9954
2, 9938
2, 9922
2, 9954
2, 9938
2, 9906
2, 9890
2, 9890
2, 9906
2, 9922
2, 9906
2, 9906
2, 9874
2, 9858
2, 9890
2, 9874
2, 9874
2, 9890
2, 9874
2, 9826
2, 9826
2, 9858
2, 9858
2, 9858
2, 9826
2, 9794
2, 9858
2, 9874
2, 9858
2, 9858
2, 9842
2, 9874
2, 9986
2, 9970
2, 9986
2, 9954
2, 9970
2, 10002
2, 10066
2, 10050
2, 10034
2, 10018
2, 10066
2, 10018
2, 10018
2, 9986
2, 9986
2, 9938
2, 9906
2, 9906
2, 9890
2, 9842
2, 9842
2, 9874
2, 9858
2, 9826
2, 9826
2, 9826
2, 9778
2, 9762
2, 9794
2, 9794
2, 9810
2, 9858
2, 9842
2, 9810
2, 9794
2, 9762
2, 9746
2, 9778
2, 9762
2, 9730
2, 9714
2, 9682
2, 9666
2, 9682
2, 9698
2, 9682
2, 9714
2, 9682
2, 9682
2, 9634
2, 9634
2, 9554
2, 9618
2, 9602
2, 9602
2, 9586
2, 9538
2, 9522
2, 9490
2, 9490
2, 9474
2, 9442
2, 9442
2, 9442
2, 9442
2, 9394
2, 9378
2, 9394
2, 9362
2, 9362
2, 9314
2, 9314
2, 9298
2, 9282
2, 9250
2, 9250
2, 9234
2, 9202
2, 9186
2, 9202
2, 9218
2, 9234
2, 9202
2, 9218
2, 9218
2, 9250
2, 9202
2, 9218
2, 9218
2, 9218
2, 9234
2, 9234
2, 9218
2, 9202
2, 9218
2, 9202
2, 9202
2, 9154
2, 9170
2, 9186
2, 9186
2, 9202
2, 9234
2, 9218
2, 9202
2, 9154
2, 9138
2, 9170
2, 9154
2, 9138
2, 9122
2, 9202
2, 9234
2, 9218
2, 9202
2, 9154
2, 9122
2, 9170
2, 9170
2, 9122
2, 9154
2, 9138
2, 9170
2, 9218
2, 9186
2, 9186
2, 9186
2, 9138
2, 9074
2, 9026
2, 9122
2, 9122
2, 8994
2, 9074
2, 9074
2, 9074
2, 9074
2, 9074
2, 9074
2, 9042
2, 9042
2, 9090
2, 8994
2, 9090
2, 9026
2, 9074
2, 9090
2, 8978
2, 9026
2, 8994
2, 8994
2, 8994
2, 8930
2, 8914
2, 8962
2, 8914
2, 8930
2, 8946
2, 8850
2, 8850
2, 8850
2, 8834
2, 8850
2, 8866
2, 8882
2, 8818
2, 8770
2, 8818
2, 8850
2, 8818
2, 8786
2, 8834
2, 8898
2, 8850
2, 8818
2, 8770
2, 8818
2, 8802
2, 8754
2, 8754
2, 8802
2, 8850
2, 8786
2, 8802
2, 8786
2, 8770
2, 8770
2, 8786
2, 8738
2, 8738
2, 8770
2, 8722
2, 8754
2, 8738
2, 8706
2, 8786
2, 8738
2, 8674
2, 8674
2, 8674
2, 8722
2, 8706
2, 8690
2, 8706
2, 8690
2, 8738
2, 8754
2, 8722
2, 8690
2, 8690
2, 8690
2, 8658
2, 8642
2, 8658
2, 8642
2, 8642
2, 8626
2, 8626
2, 8626
2, 8642
2, 8690
2, 8642
2, 8690
2, 8674
2, 8706
2, 8690
2, 8674
2, 8690
2, 8722
2, 8738
2, 8786
2, 8802
2, 8850
2, 8850
2, 8850
2, 8866
2, 8866
2, 8866
2, 8850
2, 8834
2, 8818
2, 8802
2, 8786
2, 8770
2, 8786
2, 8770
2, 8770
2, 8770
2, 8738
2, 8706
2, 8722
2, 8738
2, 8738
2, 8722
2, 8722
2, 8706
2, 8722
2, 8754
2, 8754
2, 8754
2, 8754
2, 8738
2, 8722
2, 8722
2, 8706
2, 8706
2, 8674
2, 8674
2, 8658
2, 8674
2, 8706
2, 8706
2, 8722
2, 8706
2, 8706
2, 8658
2, 8674
2, 8690
2, 8674
2, 8642
2, 8658
2, 8658
2, 8674
2, 8738
2, 8706
2, 8690
2, 8706
2, 8674
2, 8722
2, 8802
2, 8786
2, 8786
2, 8786
2, 8786
2, 8738
2, 8738
2, 8738
2, 8722
2, 8722
2, 8706
2, 8770
2, 8738
2, 8738
2, 8738
2, 8722
2, 8738
2, 8786
2, 8770
2, 8754
2, 8754
2, 8738
2, 8722
2, 8722
2, 8738
2, 8738
2, 8802
2, 8754
2, 8754
2, 8770
2, 8786
2, 8770
2, 8770
2, 8754
2, 8738
2, 8754
2, 8722
2, 8722
2, 8722
2, 8786
2, 8834
2, 8818
2, 8834
2, 8818
2, 8770
2, 8770
2, 8786
2, 8770
2, 8738
2, 8770
2, 8770
2, 8754
2, 8770
2, 8818
2, 8802
2, 8818
2, 8818
2, 8834
2, 8834
2, 8834
2, 8770
2, 8802
2, 8786
2, 8786
2, 8786
2, 8802
2, 8818
2, 8786
2, 8818
2, 8802
2, 8818
2, 8770
2, 8866
2, 8914
2, 8882
2, 8882
2, 8866
2, 8850
2, 8834
2, 8866
2, 8834
2, 8850
2, 8834
2, 8834
2, 8850
2, 8898
2, 8882
2, 8850
2, 8866
2, 8866
2, 8898
2, 8866
2, 8914
2, 8946
2, 8930
2, 8962
2, 8962
2, 8994
2, 9010
2, 9010
2, 9074
2, 9058
2, 9090
2, 9058
2, 9074
2, 9042
2, 9058
2, 9042
2, 9026
2, 9058
2, 9042
2, 9074
2, 9058
2, 9122
2, 9122
2, 9106
2, 9138
2, 9154
2, 9122
2, 9058
2, 9042
2, 9026
2, 9058
2, 9154
2, 9186
2, 9170
2, 9154
2, 9122
2, 9138
2, 9170
2, 9170
2, 9138
2, 9138
2, 9106
2, 9090
2, 9106
2, 9074
2, 9090
2, 9090
2, 9074
2, 9074
2, 9042
2, 9026
2, 9042
2, 9042
2, 8978
2, 8994
2, 8962
2, 8994
2, 8978
2, 9010
2, 8978
2, 8962
2, 8962
2, 8994
2, 8962
2, 8978
2, 8962
2, 8930
2, 8962
2, 9010
2, 9010
2, 9010
2, 8994
2, 9010
2, 9010
2, 8978
2, 8962
2, 8914
2, 8914
2, 8946
2, 8914
2, 8898
2, 8898
2, 8866
2, 8850
2, 8866
2, 8898
2, 8930
2, 8930
2, 8930
2, 8930
2, 8946
2, 8946
2, 8914
2, 8914
2, 8994
2, 8978
2, 8994
2, 8978
2, 8978
2, 8978
2, 8978
2, 8994
2, 9058
2, 9042
2, 9010
2, 9026
2, 9106
2, 9106
2, 9202
2, 9250
2, 9282
2, 9218
2, 9218
2, 9234
2, 9218
2, 9218
2, 9218
2, 9218
2, 9218
2, 9266
2, 9250
2, 9282
2, 9330
2, 9570
2, 10002
2, 10290
2, 10338
2, 10354
2, 10402
2, 10498
2, 10530
2, 10562
2, 10546
2, 10514
2, 10434
2, 10402
2, 10402
2, 10546
2, 10722
2, 10674
2, 10674
2, 10626
2, 10610
2, 10578
2, 10498
2, 10546
2, 10610
2, 10610
2, 10546
2, 10514
2, 10642
2, 10754
2, 10850
2, 10898
2, 10962
2, 11010
2, 11218
2, 11378
2, 11458
2, 11442
2, 11570
2, 11794
2, 12130
2, 12226
2, 12210
2, 12467
2, 12835
2, 13059
2, 13123
2, 13155
2, 13187
2, 13139
2, 13379
2, 13731
2, 13683
2, 13619
2, 13555
2, 13475
2, 13443
2, 13363
2, 13299
2, 13203
2, 13203
2, 13187
2, 13267
2, 13235
2, 13203
2, 13107
2, 13075
2, 13011
2, 12995
2, 12963
2, 12963
2, 12899
2, 12851
2, 12819
2, 12803
2, 12819
2, 12851
2, 12851
2, 12771
2, 12707
2, 12675
2, 12611
2, 12611
2, 12787
2, 12835
2, 12803
2, 12915
2, 12867
2, 12803
2, 12739
2, 12723
2, 12867
2, 12963
2, 12915
2, 12867
2, 12867
2, 12803
2, 12803
2, 12963
2, 13027
2, 13059
2, 12979
2, 12979
2, 12931
2, 12883
2, 12803
2, 12739
2, 12659
2, 12707
2, 12659
2, 12579
2, 12563
2, 12803
2, 12803
2, 12723
2, 12691
2, 12675
2, 12819
2, 12995
2, 13155
2, 13187
2, 13315
2, 13251
2, 13171
2, 13171
2, 13347
2, 13427
2, 13331
2, 13363
2, 13379
2, 13315
2, 13379
2, 13459
2, 13411
2, 13363
2, 13363
2, 13427
2, 13395
2, 13299
2, 13347
2, 13571
2, 13699
2, 13651
2, 13651
2, 13587
2, 13507
2, 13491
2, 13603
2, 13571
2, 13523
2, 13555
2, 13507
2, 13443
2, 13395
2, 13331
2, 13331
2, 13283
2, 13315
2, 13347
2, 13363
2, 13427
2, 13379
2, 13283
2, 13315
2, 13219
2, 13187
2, 13091
2, 12995
2, 12931
2, 12851
2, 12771
2, 12835
2, 12755
2, 12691
2, 12723
2, 12659
2, 12595
2, 12659
2, 12611
2, 12579
2, 12675
2, 12659
2, 12627
2, 12611
2, 12563
2, 12499
2, 12515
2, 12451
2, 12371
2, 12339
2, 12291
2, 12178
2, 12130
2, 12146
2, 12194
2, 12162
2, 12162
2, 12242
2, 12226
2, 12226
2, 12178
2, 12130
2, 12066
2, 12034
2, 11954
2, 11922
2, 11874
2, 11826
2, 11778
2, 11730
2, 11714
2, 11666
2, 11634
2, 11586
2, 11586
2, 11634
2, 11570
2, 11554
2, 11554
2, 11602
2, 11634
2, 11586
2, 11570
2, 11522
2, 11506
2, 11522
2, 11506
2, 11506
2, 11554
2, 11618
2, 11634
2, 11554
2, 11522
2, 11474
2, 11474
2, 11506
2, 11426
2, 11394
2, 11410
2, 11378
2, 11330
2, 11506
2, 11650
2, 11586
2, 11698
2, 12114
2, 12291
2, 12226
2, 12210
2, 12194
2, 12194
2, 12194
2, 12194
2, 12162
2, 12130
2, 12098
2, 12034
2, 11970
2, 11938
2, 11906
2, 11858
2, 11842
2, 11842
2, 11842
2, 11842
2, 11810
2, 11762
2, 11714
2, 11666
2, 11602
2, 11570
2, 11554
2, 11506
2, 11474
2, 11410
2, 11378
2, 11394
2, 11362
2, 11330
2, 11266
2, 11250
2, 11202
2, 11154
2, 11138
2, 11090
2, 11138
2, 11202
2, 11170
2, 11186
2, 11170
2, 11122
2, 11074
2, 11042
2, 10994
2, 10946
2, 10898
2, 10914
2, 10962
2, 10930
2, 10898
2, 10866
2, 10786
2, 10786
2, 10738
2, 10690
2, 10658
2, 10642
2, 10642
2, 10642
2, 10642
2, 10610
2, 10562
2, 10562
2, 10610
2, 10578
2, 10562
2, 10562
2, 10498
2, 10498
2, 10482
2, 10466
2, 10514
2, 10498
2, 10450
2, 10402
2, 10386
2, 10402
2, 10386
2, 10402
2, 10402
2, 10386
2, 10450
2, 10498
2, 10466
2, 10434
2, 10402
2, 10402
2, 10450
2, 10402
2, 10386
2, 10338
2, 10338
2, 10322
2, 10370
2, 10306
2, 10274
2, 10258
2, 10242
2, 10242
2, 10210
2, 10274
2, 10290
2, 10290
2, 10354
2, 10338
2, 10306
2, 10258
2, 10258
2, 10258
2, 10210
2, 10178
2, 10194
2, 10178
2, 10162
2, 10210
2, 10210
2, 10194
2, 10194
2, 10162
2, 10162
2, 10130
2, 10114
2, 10066
2, 10082
2, 10050
2, 10034
2, 10002
2, 9986
2, 9970
2, 9922
2, 9922
2, 9890
2, 9874
2, 9826
2, 9810
2, 9810
2, 9762
2, 9794
2, 9730
2, 9730
2, 9682
2, 9682
2, 9682
2, 9666
2, 9634
2, 9650
2, 9682
2, 9682
2, 9650
2, 9618
2, 9618
2, 9618
2, 9602
2, 9554
2, 9522
2, 9538
2, 9506
2, 9490
2, 9474
2, 9474
2, 9474
2, 9442
2, 9426
2, 9442
2, 9378
2, 9378
2, 9362
2, 9362
2, 9314
2, 9298
2, 9282
2, 9314
2, 9314
2, 9330
2, 9330
2, 9298
2, 9282
2, 9250
2, 9282
2, 9234
2, 9266
2, 9266
2, 9234
2, 9250
2, 9218
2, 9186
2, 9218
2, 9218
2, 9170
2, 9218
2, 9218
2, 9186
2, 9202
2, 9154
2, 9138
2, 9106
2, 9090
2, 9074
2, 9090
2, 9074
2, 9058
2, 9058
2, 9058
2, 9058
2, 9010
2, 9026
2, 8994
2, 9026
2, 9042
2, 8994
2, 9042
2, 9042
2, 9026
2, 8994
2, 8994
2, 8930
2, 8914
2, 8930
2, 8914
2, 8914
2, 8930
2, 8898
2, 8850
2, 8834
2, 8834
2, 8834
2, 8850
2, 8802
2, 8834
2, 8834
2, 8818
2, 8770
2, 8754
2, 8754
2, 8738
2, 8786
2, 8866
2, 8850
2, 8866
2, 8834
2, 8882
2, 8834
2, 8850
2, 8866
2, 8866
2, 8866
2, 8834
2, 8834
2, 8850
2, 8818
2, 8786
2, 8770
2, 8754
2, 8770
2, 8754
2, 8754
2, 8754
2, 8738
2, 8754
2, 8754
2, 8738
2, 8706
2, 8706
2, 8722
2, 8722
2, 8690
2, 8706
2, 8690
2, 8706
2, 8706
2, 8738
2, 8706
2, 8706
2, 8674
2, 8706
2, 8706
2, 8690
2, 8674
2, 8674
2, 8658
2, 8658
2, 8610
2, 8610
2, 8610
2, 8594
2, 8610
2, 8658
2, 8642
2, 8610
2, 8626
2, 8610
2, 8610
2, 8578
2, 8578
2, 8562
2, 8546
2, 8562
2, 8546
2, 8530
2, 8546
2, 8514
2, 8514
2, 8498
2, 8514
2, 8498
2, 8514
2, 8514
2, 8514
2, 8498
2, 8482
2, 8466
2, 8482
2, 8450
2, 8482
2, 8498
2, 8466
2, 8466
2, 8482
2, 8466
2, 8450
2, 8482
2, 8498
2, 8514
2, 8498
2, 8514
2, 8546
2, 8530
2, 8530
2, 8578
2, 8594
2, 8610
2, 8626
2, 8610
2, 8594
2, 8578
2, 8578
2, 8578
2, 8578
2, 8578
2, 8562
2, 8578
2, 8594
2, 8610
2, 8610
2, 8578
2, 8594
2, 8546
2, 8514
2, 8514
2, 8498
2, 8514
2, 8530
2, 8610
2, 8626
2, 8610
2, 8594
2, 8594
2, 8514
2, 8562
2, 8546
2, 8530
2, 8498
2, 8498
2, 8546
2, 8594
2, 8546
2, 8530
2, 8530
2, 8498
2, 8498
2, 8530
2, 8466
2, 8466
2, 8530
2, 8498
2, 8546
2, 8530
2, 8530
2, 8546
2, 8530
2, 8514
2, 8482
2, 8450
2, 8498
2, 8498
2, 8482
2, 8482
2, 8466
2, 8466
2, 8450
2, 8498
2, 8514
2, 8514
2, 8562
2, 8610
2, 8610
2, 8626
2, 8658
2, 8658
2, 8626
2, 8610
2, 8578
2, 8610
2, 8674
2, 8674
2, 8658
2, 8658
2, 8674
2, 8658
2, 8658
2, 8642
2, 8642
2, 8610
2, 8610
2, 8626
2, 8626
2, 8610
2, 8610
2, 8610
2, 8594
2, 8610
2, 8578
2, 8594
2, 8562
2, 8546
2, 8578
2, 8562
2, 8530
2, 8546
2, 8562
2, 8578
2, 8562
2, 8578
2, 8642
2, 8658
2, 8610
2, 8674
2, 8658
2, 8658
2, 8642
2, 8626
2, 8626
2, 8610
2, 8626
2, 8626
2, 8578
2, 8594
2, 8642
2, 8610
2, 8610
2, 8610
2, 8610
2, 8642
2, 8690
2, 8658
2, 8658
2, 8706
2, 8706
2, 8754
2, 8722
2, 8754
2, 8706
2, 8770
2, 8818
2, 8818
2, 8786
2, 8770
2, 8754
2, 8738
2, 8770
2, 8770
2, 8770
2, 8770
2, 8722
2, 8722
2, 8706
2, 8738
2, 8738
2, 8754
2, 8674
2, 8658
2, 8674
2, 8642
2, 8626
2, 8642
2, 8738
2, 8738
2, 8706
2, 8706
2, 8658
2, 8674
2, 8674
2, 8706
2, 8658
2, 8642
2, 8690
2, 8674
2, 8626
2, 8626
2, 8610
2, 8610
2, 8642
2, 8674
2, 8642
2, 8610
2, 8658
2, 8674
2, 8642
2, 8706
2, 8674
2, 8706
2, 8658
2, 8642
2, 8658
2, 8642
2, 8610
2, 8642
2, 8626
2, 8626
2, 8610
2, 8626
2, 8690
2, 8626
2, 8658
2, 8706
2, 8690
2, 8706
2, 8674
2, 8658
2, 8674
2, 8674
2, 8658
2, 8642
2, 8626
2, 8626
2, 8594
2, 8594
2, 8578
2, 8578
2, 8594
2, 8578
2, 8610
2, 8642
2, 8658
2, 8642
2, 8658
2, 8674
2, 8594
2, 8642
2, 8642
2, 8610
2, 8610
2, 8658
2, 8642
2, 8610
2, 8610
2, 8594
2, 8626
2, 8658
2, 8642
2, 8658
2, 8658
2, 8658
2, 8674
2, 8642
2, 8658
2, 8674
2, 8690
2, 8706
2, 8770
2, 8770
2, 8786
2, 8738
2, 8770
2, 8770
2, 8770
2, 8834
2, 8850
2, 8818
2, 8786
2, 8786
2, 8770
2, 8770
2, 8802
2, 8802
2, 8818
2, 8834
2, 8834
2, 8850
2, 8834
2, 8834
2, 8850
2, 8850
2, 8866
2, 8818
2, 8818
2, 8802
2, 8802
2, 8802
2, 8770
2, 8802
2, 8786
2, 8770
2, 8802
2, 8770
2, 8770
2, 8738
2, 8738
2, 8786
2, 8770
2, 8754
2, 8786
2, 8818
2, 8802
2, 8786
2, 8786
2, 8786
2, 8754
2, 8770
2, 8850
2, 8850
2, 8834
2, 8866
2, 8898
2, 8866
2, 8834
2, 8818
2, 8850
2, 8882
2, 8898
2, 8882
2, 8866
2, 8850
2, 8866
2, 8834
2, 8898
2, 8898
2, 8914
2, 8882
2, 8866
2, 8882
2, 8882
2, 8866
2, 8882
2, 8882
2, 8898
2, 8930
2, 8914
2, 8930
2, 8898
2, 8930
2, 8914
2, 8882
2, 8882
2, 8866
2, 8834
2, 8834
2, 8802
2, 8850
2, 8866
2, 8866
2, 8834
2, 8834
2, 8802
2, 8818
2, 8802
2, 8738
2, 8770
2, 8738
2, 8754
2, 8770
2, 8770
2, 8738
2, 8738
2, 8738
2, 8754
2, 8738
2, 8754
2, 8754
2, 8738
2, 8722
2, 8706
2, 8706
2, 8706
2, 8722
2, 8770
2, 8770
2, 8802
2, 8802
2, 8834
2, 8818
2, 8802
2, 8786
2, 8770
2, 8754
2, 8770
2, 8786
2, 8754
2, 8722
2, 8738
2, 8754
2, 8738
2, 8770
2, 8834
2, 8866
2, 8866
2, 8834
2, 8850
2, 8850
2, 8818
2, 8802
2, 8786
2, 8770
2, 8754
2, 8722
2, 8738
2, 8754
2, 8818
2, 8850
2, 8834
2, 8834
2, 8818
2, 8898
2, 8850
2, 8866
2, 8834
2, 8834
2, 8802
2, 8818
2, 8818
2, 8770
2, 8770
2, 8738
2, 8818
2, 8866
2, 8882
2, 8866
2, 8866
2, 8866
2, 8930
2, 8898
2, 8898
2, 8898
2, 8866
2, 8914
2, 8882
2, 8882
2, 8882
2, 8850
2, 8866
2, 8850
2, 8866
2, 8866
2, 8882
2, 8946
2, 9026
2, 9090
2, 9122
2, 9362
2, 9538
2, 9682
2, 9682
2, 9650
2, 9666
2, 9618
2, 9634
2, 9602
2, 9618
2, 9570
2, 9554
2, 9602
2, 9842
2, 9954
2, 9922
2, 10002
2, 10274
2, 10402
2, 10530
2, 10642
2, 10690
2, 10658
2, 10690
2, 10882
2, 11090
2, 11154
2, 11154
2, 11250
2, 11314
2, 11362
2, 11298
2, 11314
2, 11362
2, 11330
2, 11298
2, 11282
2, 11394
2, 11314
2, 11298
2, 11250
2, 11330
2, 11426
2, 11474
2, 11522
2, 11682
2, 11842
2, 11938
2, 11922
2, 11906
2, 12050
2, 12274
2, 12274
2, 12226
2, 12258
2, 12194
2, 12146
2, 12098
2, 12130
2, 12146
2, 12066
2, 12066
2, 12018
2, 11986
2, 12162
2, 12162
2, 12146
2, 12339
2, 12579
2, 12707
2, 12723
2, 12707
2, 12755
2, 12691
2, 12691
2, 12675
2, 12579
2, 12595
2, 12531
2, 12579
2, 12579
2, 12531
2, 12467
2, 12419
2, 12419
2, 12419
2, 12339
2, 12274
2, 12242
2, 12531
2, 12579
2, 12547
2, 12483
2, 12435
2, 12355
2, 12323
2, 12339
2, 12323
2, 12435
2, 12483
2, 12467
2, 12579
2, 12579
2, 12547
2, 12531
2, 12451
2, 12435
2, 12515
2, 12611
2, 12595
2, 12499
2, 12627
2, 12755
2, 12707
2, 12643
2, 12563
2, 12515
2, 12467
2, 12419
2, 12371
2, 12435
2, 12403
2, 12339
2, 12274
2, 12194
2, 12210
2, 12242
2, 12355
2, 12274
2, 12291
2, 12258
2, 12258
2, 12162
2, 12146
2, 12098
2, 12242
2, 12307
2, 12274
2, 12274
2, 12274
2, 12194
2, 12258
2, 12403
2, 12419
2, 12355
2, 12387
2, 12531
2, 12643
2, 12563
2, 12643
2, 12723
2, 12707
2, 12707
2, 12803
2, 12771
2, 12787
2, 12771
2, 12787
2, 12755
2, 12723
2, 12643
2, 12595
2, 12579
2, 12515
2, 12483
2, 12387
2, 12387
2, 12323
2, 12258
2, 12258
2, 12210
2, 12146
2, 12034
2, 12050
2, 12034
2, 11954
2, 11922
2, 11842
2, 11858
2, 11842
2, 11762
2, 11746
2, 11714
2, 11762
2, 11890
2, 11906
2, 12018
2, 12034
2, 11986
2, 11954
2, 11906
2, 11938
2, 11890
2, 11858
2, 11842
2, 11794
2, 11826
2, 11970
2, 11986
2, 11986
2, 12002
2, 12050
2, 12178
2, 12226
2, 12210
2, 12371
2, 12403
2, 12403
2, 12403
2, 12371
2, 12291
2, 12258
2, 12210
2, 12226
2, 12210
2, 12242
2, 12130
2, 12082
2, 12050
2, 12034
2, 12034
2, 12082
2, 12050
2, 12002
2, 12018
2, 11970
2, 11938
2, 11890
2, 11874
2, 11890
2, 11986
2, 12082
2, 12130
2, 12098
2, 12130
2, 12130
2, 12291
2, 12419
2, 12323
2, 12435
2, 12355
2, 12339
2, 12307
2, 12291
2, 12291
2, 12258
2, 12194
2, 12162
2, 12130
2, 12034
2, 11970
2, 11938
2, 12178
2, 12114
2, 12162
2, 12146
2, 12098
2, 12034
2, 11986
2, 11954
2, 11954
2, 11970
2, 11954
2, 11906
2, 11922
2, 11970
2, 12002
2, 12114
2, 12034
2, 12098
2, 12114
2, 12066
2, 12082
2, 12258
2, 12291
2, 12323
2, 12242
2, 12162
2, 12194
2, 12146
2, 12130
2, 12114
2, 12114
2, 12082
2, 12034
2, 11954
2, 11906
2, 11826
2, 11810
2, 11762
2, 11730
2, 11682
2, 11666
2, 11666
2, 11586
2, 11554
2, 11506
2, 11442
2, 11378
2, 11346
2, 11314
2, 11346
2, 11282
2, 11250
2, 11218
2, 11186
2, 11154
2, 11154
2, 11106
2, 11058
2, 10994
2, 10978
2, 11042
2, 11058
2, 11058
2, 11042
2, 11026
2, 11026
2, 11058
2, 10994
2, 10978
2, 10914
2, 10914
2, 10898
2, 10946
2, 10994
2, 10994
2, 10914
2, 10930
2, 10898
2, 10818
2, 10802
2, 10802
2, 10802
2, 10754
2, 10770
2, 10690
2, 10722
2, 10690
2, 10642
2, 10594
2, 10578
2, 10546
2, 10514
2, 10466
2, 10482
2, 10450
2, 10418
2, 10370
2, 10386
2, 10306
2, 10290
2, 10290
2, 10242
2, 10194
2, 10258
2, 10226
2, 10226
2, 10210
2, 10178
2, 10146
2, 10146
2, 10114
2, 10082
2, 10050
2, 10034
2, 9986
2, 10018
2, 10018
2, 10018
2, 9954
2, 9954
2, 9922
2, 9874
2, 9874
2, 9826
2, 9874
2, 9842
2, 9842
2, 9794
2, 9730
2, 9714
2, 9746
2, 9714
2, 9714
2, 9746
2, 9714
2, 9698
2, 9762
2, 9762
2, 9698
2, 9698
2, 9666
2, 9586
2, 9634
2, 9666
2, 9650
2, 9634
2, 9618
2, 9602
2, 9554
2, 9570
2, 9570
2, 9522
2, 9522
2, 9490
2, 9474
2, 9410
2, 9506
2, 9522
2, 9506
2, 9586
2, 9586
2, 9618
2, 9586
2, 9570
2, 9602
2, 9554
2, 9538
2, 9522
2, 9538
2, 9490
2, 9554
2, 9522
2, 9506
2, 9490
2, 9490
2, 9506
2, 9522
2, 9506
2, 9474
2, 9506
2, 9474
2, 9410
2, 9410
2, 9362
2, 9394
2, 9378
2, 9394
2, 9410
2, 9378
2, 9346
2, 9314
2, 9298
2, 9298
2, 9298
2, 9250
2, 9266
2, 9234
2, 9234
2, 9218
2, 9218
2, 9202
2, 9154
2, 9186
2, 9170
2, 9170
2, 9138
2, 9138
2, 9138
2, 9106
2, 9122
2, 9090
2, 9058
2, 9074
2, 9090
2, 9090
2, 9090
2, 9058
2, 9042
2, 9026
2, 9026
2, 9026
2, 9010
2, 9010
2, 8994
2, 8962
2, 8978
2, 8978
2, 8962
2, 8914
2, 8930
2, 8914
2, 8914
2, 8914
2, 8898
2, 8882
2, 8850
2, 8834
2, 8802
2, 8802
2, 8818
2, 8802
2, 8834
2, 8834
2, 8834
2, 8802
2, 8802
2, 8786
2, 8754
2, 8754
2, 8722
2, 8706
2, 8722
2, 8722
2, 8738
2, 8722
2, 8754
2, 8722
2, 8754
2, 8706
2, 8706
2, 8738
2, 8706
2, 8674
2, 8706
2, 8706
2, 8658
2, 8674
2, 8690
2, 8642
2, 8674
2, 8674
2, 8690
2, 8658
2, 8674
2, 8690
2, 8626
2, 8674
2, 8642
2, 8642
2, 8674
2, 8706
2, 8690
2, 8754
2, 8738
2, 8706
2, 8706
2, 8674
2, 8690
2, 8642
2, 8658
2, 8658
2, 8642
2, 8626
2, 8642
2, 8642
2, 8610
2, 8642
2, 8626
2, 8658
2, 8674
2, 8642
2, 8642
2, 8626
2, 8610
2, 8626
2, 8626
2, 8578
2, 8562
2, 8562
2, 8578
2, 8546
2, 8562
2, 8610
2, 8562
2, 8594
2, 8626
2, 8642
2, 8594
2, 8578
2, 8578
2, 8594
2, 8610
2, 8594
2, 8562
2, 8578
2, 8578
2, 8578
2, 8594
2, 8578
2, 8578
2, 8594
2, 8658
2, 8626
2, 8626
2, 8626
2, 8626
2, 8610
2, 8642
2, 8626
2, 8626
2, 8642
2, 8626
2, 8626
2, 8674
2, 8690
2, 8658
2, 8642
2, 8626
2, 8610
2, 8594
2, 8578
2, 8594
2, 8594
2, 8610
2, 8610
2, 8578
2, 8546
2, 8578
2, 8546
2, 8578
2, 8610
2, 8578
2, 8562
2, 8562
2, 8546
2, 8562
2, 8530
2, 8514
2, 8546
2, 8530
2, 8546
2, 8530
2, 8514
2, 8530
2, 8514
2, 8482
2, 8514
2, 8498
2, 8498
2, 8514
2, 8514
2, 8498
2, 8482
2, 8482
2, 8450
2, 8450
2, 8434
2, 8450
2, 8482
2, 8466
2, 8466
2, 8466
2, 8514
2, 8482
2, 8482
2, 8482
2, 8450
2, 8482
2, 8562
2, 8578
2, 8562
2, 8562
2, 8562
2, 8514
2, 8514
2, 8514
2, 8482
2, 8482
2, 8514
2, 8466
2, 8482
2, 8530
2, 8498
2, 8482
2, 8498
2, 8562
2, 8530
2, 8594
2, 8754
2, 8770
2, 8850
2, 8882
2, 8866
2, 8898
2, 8882
2, 8834
2, 8850
2, 8834
2, 8802
2, 8802
2, 8898
2, 8866
2, 8818
2, 8802
2, 8834
2, 8834
2, 8850
2, 8898
2, 8866
2, 8850
2, 8850
2, 8866
2, 8850
2, 8802
2, 8802
2, 8818
2, 8834
2, 8850
2, 8882
2, 8866
2, 8850
2, 8850
2, 8834
2, 8834
2, 8850
2, 8850
2, 8866
2, 8850
2, 8834
2, 8850
2, 8850
2, 8818
2, 8818
2, 8866
2, 8850
2, 8818
2, 8802
2, 8818
2, 8866
2, 8866
2, 8850
2, 8818
2, 8850
2, 8834
2, 8818
2, 8786
2, 8786
2, 8786
2, 8770
2, 8802
2, 8786
2, 8802
2, 8786
2, 8802
2, 8754
2, 8770
2, 8754
2, 8770
2, 8802
2, 8802
2, 8866
2, 8866
2, 8850
2, 8882
2, 8866
2, 8866
2, 8818
2, 8834
2, 8850
2, 8850
2, 8850
2, 8834
2, 8834
2, 8834
2, 8866
2, 8802
2, 8786
2, 8818
2, 8786
2, 8786
2, 8818
2, 8786
2, 8786
2, 8834
2, 8786
2, 8834
2, 8818
2, 8802
2, 8818
2, 8802
2, 8818
2, 8818
2, 8754
2, 8754
2, 8722
2, 8754
2, 8738
2, 8738
2, 8754
2, 8738
2, 8706
2, 8674
2, 8674
2, 8706
2, 8674
2, 8706
2, 8690
2, 8706
2, 8706
2, 8706
2, 8706
2, 8690
2, 8738
2, 8738
2, 8722
2, 8738
2, 8706
2, 8706
2, 8706
2, 8722
2, 8722
2, 8706
2, 8690
2, 8706
2, 8690
2, 8690
2, 8738
2, 8754
2, 8786
2, 8882
2, 8898
2, 8866
2, 8882
2, 8882
2, 8834
2, 8802
2, 8818
2, 8802
2, 8834
2, 8834
2, 8898
2, 8882
2, 8850
2, 8850
2, 8834
2, 8834
2, 8850
2, 8914
2, 8882
2, 8882
2, 8866
2, 8898
2, 8914
2, 8930
2, 8914
2, 8882
2, 8898
2, 8930
2, 8962
2, 8930
2, 8946
2, 8898
2, 8850
2, 8866
2, 8866
2, 8866
2, 8866
2, 8850
2, 8850
2, 8850
2, 8818
2, 8786
2, 8802
2, 8834
2, 8850
2, 8834
2, 8834
2, 8802
2, 8802
2, 8802
2, 8834
2, 8802
2, 8834
2, 8834
2, 8802
2, 8818
2, 8818
2, 8802
2, 8834
2, 8802
2, 8850
2, 8882
2, 8850
2, 8866
2, 8866
2, 8866
2, 8898
2, 8866
2, 8898
2, 8882
2, 8946
2, 8978
2, 8962
2, 8994
2, 9026
2, 9058
2, 9058
2, 9058
2, 9042
2, 9042
2, 9074
2, 9122
2, 9122
2, 9138
2, 9154
2, 9138
2, 9122
2, 9090
2, 9090
2, 9074
2, 9042
2, 9058
2, 9090
2, 9122
2, 9106
2, 9106
2, 9074
2, 9074
2, 9074
2, 9042
2, 9074
2, 9074
2, 9042
2, 9010
2, 9026
2, 9026
2, 8994
2, 8978
2, 8962
2, 8946
2, 8914
2, 8994
2, 8946
2, 8930
2, 8930
2, 8946
2, 8962
2, 8930
2, 8914
2, 8930
2, 8930
2, 8930
2, 8898
2, 8882
2, 8898
2, 8850
2, 8834
2, 8834
2, 8834
2, 8802
2, 8818
2, 8802
2, 8786
2, 8834
2, 8834
2, 8818
2, 8786
2, 8802
2, 8786
2, 8802
2, 8802
2, 8786
2, 8770
2, 8770
2, 8754
2, 8722
2, 8722
2, 8722
2, 8706
2, 8738
2, 8738
2, 8706
2, 8754
2, 8722
2, 8722
2, 8802
2, 8770
2, 8770
2, 8754
2, 8770
2, 8770
2, 8722
2, 8738
2, 8738
2, 8738
2, 8754
2, 8770
2, 8786
2, 8802
2, 8770
2, 8754
2, 8754
2, 8754
2, 8738
2, 8722
2, 8754
2, 8706
2, 8674
2, 8674
2, 8706
2, 8706
2, 8738
2, 8738
2, 8786
2, 8802
2, 8786
2, 8786
2, 8786
2, 8866
2, 8866
2, 8834
2, 8850
2, 8850
2, 8866
2, 8834
2, 8818
2, 8834
2, 8818
2, 8818
2, 8834
2, 8834
2, 8946
2, 9026
2, 9026
2, 9026
2, 9058
2, 9058
2, 9058
2, 9042
2, 9010
2, 9058
2, 9058
2, 9106
2, 9122
2, 9202
2, 9202
2, 9234
2, 9218
2, 9202
2, 9218
2, 9170
2, 9186
2, 9186
2, 9170
2, 9170
2, 9170
2, 9298
2, 9442
2, 9442
2, 9538
2, 9602
2, 9634
2, 9602
2, 9586
2, 9570
2, 9570
2, 9570
2, 9570
2, 9650
2, 9666
2, 9682
2, 9682
2, 9682
2, 9682
2, 9730
2, 9874
2, 9858
2, 9922
2, 9986
2, 9970
2, 9938
2, 9970
2, 10210
2, 10242
2, 10274
2, 10370
2, 10386
2, 10402
2, 10594
2, 10690
2, 10770
2, 10946
2, 11346
2, 11714
2, 11682
2, 11810
2, 11986
2, 12194
2, 12274
2, 12274
2, 12258
2, 12274
2, 12371
2, 12355
2, 12371
2, 12451
2, 12467
2, 12723
2, 12675
2, 12707
2, 12771
2, 12675
2, 12627
2, 12563
2, 12563
2, 12547
2, 12739
2, 13107
2, 13683
2, 13779
2, 13875
2, 14323
2, 14467
2, 14531
2, 14483
2, 14451
2, 14563
2, 14515
2, 14435
2, 14467
2, 14435
2, 14403
2, 14355
2, 14291
2, 14195
2, 14147
2, 14131
2, 14131
2, 14163
2, 14195
2, 14115
2, 14019
2, 14083
2, 14179
2, 14131
2, 14131
2, 14083
2, 14019
2, 14035
2, 14051
2, 13971
2, 13891
2, 13859
2, 13827
2, 13747
2, 13891
2, 14003
2, 13987
2, 13939
2, 13843
2, 13795
2, 13859
2, 13987
2, 14003
2, 13955
2, 13891
2, 13907
2, 14051
2, 14067
2, 14019
2, 13971
2, 13987
2, 13971
2, 13939
2, 14003
2, 13907
2, 13843
2, 13779
2, 13747
2, 13699
2, 13603
2, 13539
2, 13507
2, 13507
2, 13443
2, 13459
2, 13427
2, 13363
2, 13315
2, 13283
2, 13283
2, 13267
2, 13283
2, 13235
2, 13299
2, 13363
2, 13315
2, 13251
2, 13427
2, 13475
2, 13411
2, 13347
2, 13267
2, 13235
2, 13171
2, 13139
2, 13171
2, 13059
2, 12995
2, 12931
2, 12867
2, 12803
2, 12835
2, 12803
2, 12723
2, 12643
2, 12579
2, 12531
2, 12531
2, 12515
2, 12419
2, 12387
2, 12387
2, 12387
2, 12323
2, 12274
2, 12291
2, 12258
2, 12226
2, 12307
2, 12291
2, 12242
2, 12258
2, 12419
2, 12387
2, 12403
2, 12339
2, 12274
2, 12242
2, 12178
2, 12178
2, 12226
2, 12274
2, 12323
2, 12355
2, 12547
2, 12611
2, 12547
2, 12643
2, 12659
2, 12707
2, 12867
2, 12979
2, 12931
2, 12867
2, 12915
2, 12931
2, 12867
2, 12787
2, 12739
2, 12755
2, 12755
2, 12803
2, 12883
2, 12803
2, 12771
2, 12787
2, 12819
2, 12771
2, 12787
2, 12803
2, 12755
2, 12739
2, 12659
2, 12659
2, 12643
2, 12579
2, 12515
2, 12483
2, 12435
2, 12435
2, 12483
2, 12483
2, 12499
2, 12771
2, 12883
2, 12787
2, 12835
2, 12771
2, 12723
2, 12659
2, 12707
2, 12739
2, 12819
2, 12867
2, 12835
2, 12755
2, 12755
2, 12675
2, 12627
2, 12595
2, 12531
2, 12483
2, 12419
2, 12355
2, 12307
2, 12323
2, 12242
2, 12178
2, 12130
2, 12130
2, 12082
2, 12034
2, 11986
2, 11954
2, 11906
2, 11890
2, 11906
2, 12114
2, 12082
2, 12082
2, 12114
2, 12034
2, 11986
2, 11970
2, 12034
2, 12002
2, 11970
2, 12034
2, 11986
2, 11970
2, 11938
2, 11906
2, 11858
2, 11810
2, 11746
2, 11762
2, 11746
2, 11730
2, 11682
2, 11634
2, 11570
2, 11554
2, 11586
2, 11570
2, 11490
2, 11442
2, 11378
2, 11378
2, 11442
2, 11394
2, 11410
2, 11410
2, 11410
2, 11378
2, 11346
2, 11378
2, 11346
2, 11282
2, 11282
2, 11410
2, 11410
2, 11410
2, 11410
2, 11346
2, 11394
2, 11394
2, 11346
2, 11314
2, 11266
2, 11218
2, 11202
2, 11186
2, 11138
2, 11106
2, 11058
2, 11058
2, 10994
2, 10962
2, 10914
2, 10898
2, 10850
2, 10834
2, 10818
2, 10930
2, 10978
2, 10930
2, 10994
2, 11010
2, 10994
2, 11026
2, 11042
2, 11090
2, 11042
2, 11026
2, 11042
2, 11026
2, 10994
2, 10962
2, 10962
2, 10914
2, 10898
2, 10866
2, 10834
2, 10818
2, 10786
2, 10754
2, 10706
2, 10674
2, 10642
2, 10626
2, 10578
2, 10578
2, 10514
2, 10514
2, 10466
2, 10434
2, 10418
2, 10450
2, 10386
2, 10386
2, 10370
2, 10418
2, 10450
2, 10434
2, 10482
2, 10450
2, 10450
2, 10418
2, 10402
2, 10402
2, 10338
2, 10306
2, 10258
2, 10242
2, 10226
2, 10258
2, 10242
2, 10258
2, 10242
2, 10210
2, 10178
2, 10226
2, 10162
2, 10146
2, 10098
2, 10098
2, 10066
2, 10034
2, 10066
2, 10114
2, 10082
2, 10098
2, 10034
2, 10002
2, 9986
2, 9986
2, 9954
2, 9970
2, 10002
2, 9954
2, 9938
2, 9922
2, 9874
2, 9858
2, 9826
2, 9826
2, 9810
2, 9778
2, 9746
2, 9746
2, 9682
2, 9682
2, 9650
2, 9682
2, 9634
2, 9602
2, 9586
2, 9538
2, 9554
2, 9522
2, 9490
2, 9474
2, 9490
2, 9490
2, 9522
2, 9490
2, 9458
2, 9474
2, 9490
2, 9490
2, 9490
2, 9458
2, 9458
2, 9458
2, 9426
2, 9426
2, 9426
2, 9410
2, 9410
2, 9362
2, 9410
2, 9394
2, 9362
2, 9298
2, 9298
2, 9266
2, 9266
2, 9282
2, 9218
2, 9250
2, 9186
2, 9170
2, 9170
2, 9154
2, 9122
2, 9106
2, 9138
2, 9154
2, 9122
2, 9106
2, 9106
2, 9106
2, 9058
2, 9074
2, 9074
2, 9074
2, 9042
2, 9058
2, 9074
2, 9042
2, 9010
2, 9010
2, 8994
2, 8978
2, 8946
2, 8962
2, 8946
2, 8962
2, 8898
2, 8914
2, 8914
2, 8930
2, 8898
2, 8866
2, 8850
2, 8866
2, 8834
2, 8850
2, 8818
2, 8818
2, 8834
2, 8770
2, 8834
2, 8834
2, 8818
2, 8898
2, 8930
2, 8946
2, 8978
2, 8962
2, 8946
2, 9058
2, 9122
2, 9186
2, 9186
2, 9138
2, 9122
2, 9106
2, 9122
2, 9138
2, 9154
2, 9122
2, 9122
2, 9106
2, 9106
2, 9090
2, 9090
2, 9170
2, 9122
2, 9090
2, 9074
2, 9090
2, 9074
2, 9138
2, 9170
2, 9154
2, 9282
2, 9410
2, 9410
2, 9426
2, 9506
2, 9570
2, 9570
2, 9538
2, 9538
2, 9490
2, 9474
2, 9474
2, 9538
2, 9618
2, 9602
2, 9666
2, 9794
2, 9842
2, 9842
2, 9794
2, 9778
2, 9778
2, 9778
2, 9778
2, 9794
2, 9762
2, 9746
2, 9714
2, 9698
2, 9666
2, 9618
2, 9602
2, 9586
2, 9554
2, 9538
2, 9538
2, 9522
2, 9554
2, 9554
2, 9522
2, 9522
2, 9506
2, 9474
2, 9442
2, 9426
2, 9394
2, 9378
2, 9346
2, 9314
2, 9314
2, 9298
2, 9346
2, 9330
2, 9298
2, 9266
2, 9298
2, 9282
2, 9218
2, 9218
2, 9202
2, 9170
2, 9138
2, 9122
2, 9138
2, 9170
2, 9154
2, 9138
2, 9170
2, 9122
2, 9122
2, 9138
2, 9122
2, 9106
2, 9106
2, 9074
2, 9042
2, 9042
2, 9042
2, 9026
2, 9042
2, 9058
2, 9090
2, 9074
2, 9042
2, 9026
2, 9010
2, 8962
2, 8978
2, 8930
2, 8962
2, 8978
2, 8978
2, 8978
2, 8914
2, 8946
2, 8930
2, 8930
2, 8914
2, 8930
2, 8898
2, 8882
2, 8898
2, 8930
2, 8930
2, 8914
2, 8914
2, 8866
2, 8850
2, 8850
2, 8834
2, 8802
2, 8802
2, 8786
2, 8786
2, 8786
2, 8786
2, 8770
2, 8770
2, 8706
2, 8738
2, 8738
2, 8722
2, 8706
2, 8690
2, 8690
2, 8674
2, 8674
2, 8690
2, 8706
2, 8706
2, 8706
2, 8690
2, 8674
2, 8674
2, 8642
2, 8690
2, 8674
2, 8658
2, 8658
2, 8626
2, 8626
2, 8642
2, 8626
2, 8658
2, 8610
2, 8594
2, 8562
2, 8578
2, 8578
2, 8562
2, 8514
2, 8546
2, 8546
2, 8530
2, 8546
2, 8514
2, 8498
2, 8498
2, 8498
2, 8530
2, 8514
2, 8514
2, 8498
2, 8482
2, 8466
2, 8482
2, 8450
2, 8434
2, 8482
2, 8450
2, 8434
2, 8402
2, 8402
2, 8418
2, 8402
2, 8418
2, 8418
2, 8402
2, 8370
2, 8402
2, 8418
2, 8450
2, 8434
2, 8434
2, 8418
2, 8386
2, 8370
2, 8370
2, 8402
2, 8402
2, 8386
2, 8370
2, 8450
2, 8370
2, 8386
2, 8386
2, 8402
2, 8386
2, 8450
2, 8434
2, 8418
2, 8402
2, 8402
2, 8418
2, 8402
2, 8402
2, 8418
2, 8402
2, 8418
2, 8434
2, 8386
2, 8354
2, 8354
2, 8338
2, 8402
2, 8386
2, 8370
2, 8418
2, 8386
2, 8386
2, 8386
2, 8418
2, 8370
2, 8354
2, 8338
2, 8338
2, 8354
2, 8370
2, 8338
2, 8370
2, 8354
2, 8354
2, 8338
2, 8290
2, 8306
2, 8338
2, 8354
2, 8386
2, 8402
2, 8386
2, 8434
2, 8450
2, 8514
2, 8514
2, 8498
2, 8514
2, 8530
2, 8498
2, 8498
2, 8482
2, 8450
2, 8482
2, 8498
2, 8514
2, 8530
2, 8466
2, 8498
2, 8498
2, 8482
2, 8530
2, 8514
2, 8466
2, 8466
2, 8482
2, 8450
2, 8514
2, 8530
2, 8498
2, 8498
2, 8482
2, 8466
2, 8450
2, 8418
2, 8434
2, 8466
2, 8482
2, 8482
2, 8450
2, 8482
2, 8418
2, 8450
2, 8498
2, 8498
2, 8466
2, 8498
2, 8466
2, 8482
2, 8498
2, 8466
2, 8466
2, 8466
2, 8482
2, 8514
2, 8482
2, 8514
2, 8514
2, 8514
2, 8498
2, 8514
2, 8498
2, 8498
2, 8482
2, 8514
2, 8530
2, 8546
2, 8530
2, 8562
2, 8578
2, 8562
2, 8546
2, 8578
2, 8578
2, 8578
2, 8578
2, 8562
2, 8642
2, 8626
2, 8658
2, 8674
2, 8642
2, 8658
2, 8658
2, 8626
2, 8626
2, 8610
2, 8578
2, 8594
2, 8578
2, 8546
2, 8578
2, 8562
2, 8562
2, 8530
2, 8530
2, 8594
2, 8530
2, 8562
2, 8578
2, 8610
2, 8626
2, 8610
2, 8594
2, 8594
2, 8578
2, 8562
2, 8562
2, 8530
2, 8514
2, 8530
2, 8514
2, 8514
2, 8530
2, 8514
2, 8546
2, 8546
2, 8546
2, 8498
2, 8466
2, 8482
2, 8514
2, 8514
2, 8562
2, 8562
2, 8546
2, 8546
2, 8514
2, 8530
2, 8514
2, 8498
2, 8514
2, 8546
2, 8514
2, 8530
2, 8562
2, 8546
2, 8498
2, 8482
2, 8498
2, 8498
2, 8546
2, 8546
2, 8562
2, 8546
2, 8546
2, 8546
2, 8546
2, 8514
2, 8530
2, 8530
2, 8498
2, 8530
2, 8482
2, 8498
2, 8514
2, 8482
2, 8482
2, 8466
2, 8466
2, 8546
2, 8562
2, 8562
2, 8594
2, 8594
2, 8658
2, 8706
2, 8674
2, 8674
2, 8674
2, 8642
2, 8658
2, 8658
2, 8610
2, 8642
2, 8706
2, 8690
2, 8706
2, 8722
2, 8706
2, 8690
2, 8642
2, 8642
2, 8658
2, 8706
2, 8658
2, 8642
2, 8674
2, 8674
2, 8754
2, 8802
2, 8818
2, 8850
2, 8834
2, 8802
2, 8786
2, 8786
2, 8786
2, 8802
2, 8802
2, 8786
2, 8802
2, 8786
2, 8786
2, 8786
2, 8786
2, 8738
2, 8722
2, 8754
2, 8754
2, 8770
2, 8754
2, 8722
2, 8738
2, 8722
2, 8770
2, 8802
2, 8770
2, 8802
2, 8786
2, 8786
2, 8754
2, 8754
2, 8738
2, 8786
2, 8722
2, 8722
2, 8738
2, 8802
2, 8818
2, 8834
2, 8818
2, 8818
2, 8786
2, 8754
2, 8770
2, 8786
2, 8834
2, 8866
2, 8818
2, 8898
2, 8930
2, 8962
2, 9026
2, 9090
2, 9090
2, 9074
2, 9106
2, 9122
2, 9154
2, 9090
2, 9090
2, 9106
2, 9122
2, 9138
2, 9106
2, 9090
2, 9090
2, 9090
2, 9058
2, 9026
2, 9026
2, 9026
2, 9026
2, 8994
2, 9010
2, 9010
2, 8994
2, 9042
2, 9010
2, 9026
2, 9010
2, 9010
2, 8962
2, 8962
2, 8930
2, 8994
2, 8978
2, 8962
2, 8978
2, 8946
2, 8962
2, 8930
2, 8898
2, 8898
2, 8898
2, 8898
2, 8882
2, 8866
2, 8850
2, 8834
2, 8818
2, 8802
2, 8834
2, 8834
2, 8802
2, 8818
2, 8786
2, 8770
2, 8754
2, 8770
2, 8754
2, 8738
2, 8738
2, 8770
2, 8802
2, 8786
2, 8786
2, 8786
2, 8770
2, 8754
2, 8770
2, 8754
2, 8738
2, 8738
2, 8722
2, 8738
2, 8866
2, 8866
2, 8850
2, 8898
2, 8850
2, 8850
2, 8850
2, 8898
2, 8962
2, 8962
2, 8994
2, 8994
2, 8962
2, 8978
2, 8946
2, 8946
2, 8962
2, 9026
2, 9042
2, 9106
2, 9170
2, 9314
2, 9410
2, 9394
2, 9378
2, 9570
2, 9634
2, 9634
2, 9634
2, 9714
2, 9666
2, 9634
2, 9714
2, 9730
2, 9714
2, 9746
2, 9778
2, 9746
2, 9762
2, 9730
2, 9698
2, 9650
2, 9730
2, 9858
2, 9810
2, 9794
2, 9938
2, 10050
2, 10050
2, 10050
2, 10050
2, 10274
2, 10514
2, 10690
2, 10658
2, 10658
2, 10626
2, 10898
2, 11314
2, 11538
2, 11554
2, 11618
2, 11746
2, 11698
2, 11634
2, 11634
2, 11666
2, 11650
2, 11634
2, 11858
2, 12098
2, 12050
2, 12050
2, 12323
2, 12483
2, 12435
2, 12371
2, 12371
2, 12483
2, 12515
2, 12483
2, 12435
2, 12483
2, 12659
2, 12803
2, 12771
2, 12755
2, 12835
2, 12819
2, 12787
2, 12739
2, 12755
2, 12723
2, 12691
2, 12611
2, 12595
2, 12691
2, 12771
2, 12755
2, 12659
2, 12611
2, 12563
2, 12611
2, 12755
2, 12739
2, 12691
2, 12611
2, 12563
2, 12483
2, 12435
2, 12355
2, 12323
2, 12258
2, 12403
2, 12595
2, 12611
2, 12643
2, 12675
2, 12739
2, 12691
2, 12691
2, 12675
2, 12739
2, 12659
2, 12627
2, 12627
2, 12771
2, 12995
2, 12963
2, 12947
2, 12995
2, 12979
2, 12979
2, 12915
2, 12835
2, 12819
2, 12835
2, 12851
2, 12835
2, 12787
2, 12755
2, 12819
2, 12867
2, 12835
2, 12771
2, 12755
2, 12691
2, 12723
2, 12691
2, 12643
2, 12627
2, 12579
2, 12499
2, 12483
2, 12483
2, 12483
2, 12483
2, 12595
2, 12627
2, 12723
2, 12915
2, 12931
2, 12835
2, 12771
2, 12771
2, 12707
2, 12627
2, 12595
2, 12563
2, 12515
2, 12435
2, 12355
2, 12307
2, 12226
2, 12274
2, 12307
2, 12242
2, 12194
2, 12114
2, 12162
2, 12339
2, 12387
2, 12323
2, 12419
2, 12515
2, 12483
2, 12435
2, 12387
2, 12339
2, 12291
2, 12210
2, 12194
2, 12162
2, 12162
2, 12082
2, 12050
2, 12018
2, 12002
2, 12018
2, 11954
2, 11954
2, 11986
2, 11954
2, 11874
2, 11842
2, 11858
2, 11842
2, 11794
2, 11794
2, 11746
2, 11778
2, 11810
2, 11826
2, 11874
2, 11810
2, 11778
2, 11778
2, 11954
2, 11970
2, 11906
2, 11858
2, 11842
2, 11858
2, 11874
2, 11922
2, 11890
2, 11954
2, 11954
2, 11922
2, 11906
2, 11858
2, 11858
2, 11826
2, 11794
2, 11730
2, 11714
2, 11730
2, 11666
2, 11650
2, 11682
2, 11762
2, 11906
2, 11890
2, 11954
2, 12082
2, 12114
2, 12066
2, 11986
2, 11938
2, 11954
2, 11922
2, 11970
2, 12002
2, 11970
2, 12018
2, 12002
2, 11986
2, 11922
2, 12002
2, 12002
2, 11986
2, 12002
2, 11922
2, 11890
2, 11810
2, 11794
2, 11746
2, 11714
2, 11666
2, 11602
2, 11634
2, 11794
2, 11922
2, 11874
2, 11842
2, 11794
2, 11762
2, 11730
2, 11650
2, 11602
2, 11650
2, 11666
2, 11746
2, 11746
2, 11826
2, 11874
2, 11858
2, 11842
2, 11794
2, 11746
2, 11682
2, 11682
2, 11666
2, 11602
2, 11570
2, 11490
2, 11506
2, 11474
2, 11394
2, 11378
2, 11378
2, 11346
2, 11330
2, 11282
2, 11250
2, 11202
2, 11170
2, 11122
2, 11138
2, 11122
2, 11106
2, 11042
2, 11090
2, 11026
2, 11122
2, 11138
2, 11138
2, 11186
2, 11122
2, 11154
2, 11202
2, 11202
2, 11138
2, 11122
2, 11090
2, 11074
2, 11058
2, 10994
2, 10978
2, 11010
2, 10962
2, 10914
2, 10898
2, 10898
2, 10930
2, 10930
2, 11010
2, 11106
2, 11026
2, 11122
2, 11074
2, 11058
2, 11026
2, 10994
2, 10962
2, 10898
2, 10866
2, 10818
2, 10770
2, 10754
2, 10690
2, 10658
2, 10610
2, 10578
2, 10562
2, 10546
2, 10594
2, 10562
2, 10530
2, 10498
2, 10482
2, 10434
2, 10402
2, 10370
2, 10386
2, 10370
2, 10370
2, 10322
2, 10306
2, 10322
2, 10370
2, 10322
2, 10306
2, 10370
2, 10354
2, 10402
2, 10402
2, 10370
2, 10322
2, 10274
2, 10258
2, 10242
2, 10226
2, 10242
2, 10210
2, 10194
2, 10162
2, 10146
2, 10082
2, 10082
2, 10098
2, 10050
2, 10162
2, 10178
2, 10178
2, 10146
2, 10114
2, 10130
2, 10210
2, 10274
2, 10226
2, 10178
2, 10162
2, 10114
2, 10098
2, 10066
2, 10050
2, 10098
2, 10178
2, 10162
2, 10178
2, 10194
2, 10226
2, 10162
2, 10146
2, 10114
2, 10082
2, 10066
2, 10018
2, 10018
2, 9986
2, 9954
2, 9906
2, 9906
2, 9890
2, 9858
2, 9842
2, 9810
2, 9826
2, 9810
2, 9778
2, 9746
2, 9730
2, 9698
2, 9698
2, 9666
2, 9682
2, 9666
2, 9618
2, 9634
2, 9602
2, 9586
2, 9602
2, 9602
2, 9570
2, 9570
2, 9554
2, 9586
2, 9586
2, 9570
2, 9538
2, 9506
2, 9506
2, 9506
2, 9506
2, 9554
2, 9522
2, 9522
2, 9490
2, 9458
2, 9458
2, 9426
2, 9442
2, 9554
2, 9666
2, 9682
2, 9682
2, 9714
2, 9698
2, 9698
2, 9682
2, 9650
2, 9634
2, 9634
2, 9682
2, 9618
2, 9682
2, 9666
2, 9634
2, 9602
2, 9570
2, 9538
2, 9554
2, 9570
2, 9554
2, 9538
2, 9522
2, 9522
2, 9490
2, 9442
2, 9410
2, 9426
2, 9522
2, 9506
2, 9490
2, 9490
2, 9506
2, 9522
2, 9458
2, 9474
2, 9522
2, 9474
2, 9474
2, 9490
2, 9490
2, 9490
2, 9458
2, 9458
2, 9474
2, 9442
2, 9410
2, 9394
2, 9394
2, 9314
2, 9378
2, 9426
2, 9442
2, 9394
2, 9426
2, 9394
2, 9362
2, 9330
2, 9330
2, 9314
2, 9298
2, 9282
2, 9282
2, 9282
2, 9282
2, 9234
2, 9250
2, 9218
2, 9186
2, 9170
2, 9186
2, 9186
2, 9170
2, 9170
2, 9122
2, 9074
2, 9090
2, 9058
2, 9090
2, 9090
2, 9058
2, 9074
2, 9042
2, 9010
2, 9042
2, 9026
2, 9010
2, 9010
2, 8994
2, 9010
2, 9026
2, 9010
2, 8994
2, 8994
2, 8962
2, 8962
2, 8978
2, 8962
2, 8962
2, 8930
2, 8898
2, 8914
2, 8866
2, 8882
2, 8866
2, 8866
2, 8898
2, 8866
2, 8850
2, 8898
2, 8914
2, 8914
2, 8898
2, 8898
2, 8866
2, 8866
2, 8834
2, 8834
2, 8834
2, 8802
2, 8802
2, 8802
2, 8786
2, 8770
2, 8754
2, 8754
2, 8770
2, 8754
2, 8914
2, 8978
2, 8994
2, 8978
2, 8978
2, 8962
2, 9026
2, 9042
2, 8962
2, 8994
2, 8994
2, 8978
2, 8962
2, 9010
2, 9026
2, 8994
2, 8978
2, 9010
2, 9042
2, 9074
2, 9074
2, 9042
2, 8978
2, 8978
2, 8962
2, 8994
2, 9058
2, 9074
2, 9042
2, 9026
2, 9026
2, 8994
2, 8978
2, 8994
2, 8994
2, 8946
2, 8962
2, 8978
2, 8962
2, 8930
2, 8898
2, 8898
2, 8946
2, 8914
2, 8930
2, 8850
2, 8850
2, 8898
2, 8882
2, 8882
2, 8882
2, 8866
2, 8914
2, 8898
2, 8850
2, 8850
2, 8850
2, 8866
2, 8898
2, 8914
2, 8898
2, 8898
2, 8882
2, 8850
2, 8818
2, 8850
2, 8818
2, 8850
2, 8850
2, 8850
2, 8834
2, 8802
2, 8770
2, 8770
2, 8770
2, 8770
2, 8738
2, 8738
2, 8754
2, 8770
2, 8786
2, 8786
2, 8786
2, 8802
2, 8818
2, 8834
2, 8818
2, 8834
2, 8802
2, 8786
2, 8770
2, 8770
2, 8754
2, 8754
2, 8738
2, 8706
2, 8706
2, 8722
2, 8738
2, 8690
2, 8706
2, 8738
2, 8770
2, 8802
2, 8770
2, 8786
2, 8738
2, 8738
2, 8706
2, 8690
2, 8690
2, 8706
2, 8674
2, 8690
2, 8642
2, 8642
2, 8642
2, 8658
2, 8642
2, 8674
2, 8626
2, 8642
2, 8594
2, 8642
2, 8626
2, 8610
2, 8626
2, 8594
2, 8674
2, 8658
2, 8658
2, 8658
2, 8658
2, 8642
2, 8642
2, 8674
2, 8642
2, 8626
2, 8626
2, 8658
2, 8610
2, 8610
2, 8610
2, 8626
2, 8610
2, 8594
2, 8578
2, 8562
2, 8546
2, 8530
2, 8546
2, 8546
2, 8546
2, 8546
2, 8578
2, 8578
2, 8594
2, 8578
2, 8578
2, 8546
2, 8578
2, 8594
2, 8562
2, 8578
2, 8562
2, 8578
2, 8546
2, 8594
2, 8578
2, 8562
2, 8578
2, 8530
2, 8610
2, 8610
2, 8578
2, 8546
2, 8594
2, 8610
2, 8658
2, 8642
2, 8658
2, 8626
2, 8610
2, 8722
2, 8690
2, 8674
2, 8642
2, 8610
2, 8626
2, 8706
2, 8770
2, 8754
2, 8738
2, 8706
2, 8690
2, 8690
2, 8706
2, 8690
2, 8706
2, 8738
2, 8754
2, 8706
2, 8754
2, 8706
2, 8738
2, 8706
2, 8690
2, 8722
2, 8690
2, 8690
2, 8706
2, 8658
2, 8658
2, 8658
2, 8658
2, 8658
2, 8658
2, 8690
2, 8690
2, 8690
2, 8674
2, 8690
2, 8690
2, 8674
2, 8706
2, 8706
2, 8722
2, 8770
2, 8898
2, 8898
2, 8930
2, 9010
2, 9026
2, 9026
2, 9042
2, 9122
2, 9138
2, 9138
2, 9154
2, 9138
2, 9106
2, 9074
2, 9074
2, 9058
2, 9042
2, 9042
2, 9058
2, 9090
2, 9042
2, 9058
2, 9010
2, 9074
2, 9122
2, 9122
2, 9090
2, 9090
2, 9090
2, 9090
2, 9090
2, 9042
2, 9138
2, 9218
2, 9218
2, 9170
2, 9170
2, 9218
2, 9186
2, 9154
2, 9122
2, 9106
2, 9138
2, 9170
2, 9138
2, 9170
2, 9154
2, 9234
2, 9474
2, 9490
2, 9474
2, 9474
2, 9458
2, 9506
2, 9538
2, 9522
2, 9506
2, 9506
2, 9458
2, 9490
2, 9538
2, 9538
2, 9506
2, 9490
2, 9490
2, 9506
2, 9506
2, 9538
2, 9506
2, 9474
2, 9442
2, 9442
2, 9426
2, 9426
2, 9474
2, 9442
2, 9458
2, 9474
2, 9490
2, 9474
2, 9458
2, 9522
2, 9490
2, 9474
2, 9474
2, 9474
2, 9474
2, 9426
2, 9426
2, 9442
2, 9426
2, 9426
2, 9394
2, 9426
2, 9474
2, 9410
2, 9442
2, 9426
2, 9442
2, 9442
2, 9442
2, 9522
2, 9602
2, 9586
2, 9570
2, 9570
2, 9554
2, 9538
2, 9522
2, 9474
2, 9490
2, 9426
2, 9410
2, 9394
2, 9394
2, 9570
2, 9618
2, 9634
2, 9618
2, 9666
2, 9698
2, 9730
2, 9730
2, 9698
2, 9666
2, 9682
2, 9746
2, 9714
2, 9730
2, 9714
2, 9682
2, 9666
2, 9650
2, 9634
2, 9602
2, 9634
2, 9602
2, 9570
2, 9538
2, 9522
2, 9522
2, 9506
2, 9506
2, 9442
2, 9458
2, 9426
2, 9394
2, 9362
2, 9346
2, 9362
2, 9378
2, 9410
2, 9410
2, 9474
2, 9474
2, 9490
2, 9522
2, 9506
2, 9538
2, 9538
2, 9506
2, 9490
2, 9506
2, 9538
2, 9538
2, 9474
2, 9442
2, 9442
2, 9426
2, 9410
2, 9394
2, 9394
2, 9346
2, 9346
2, 9330
2, 9346
2, 9330
2, 9346
2, 9314
2, 9346
2, 9378
2, 9394
2, 9378
2, 9506
2, 9538
2, 9522
2, 9506
2, 9458
2, 9474
2, 9474
2, 9442
2, 9410
2, 9394
2, 9426
2, 9410
2, 9410
2, 9410
2, 9426
2, 9394
2, 9394
2, 9362
2, 9346
2, 9314
2, 9330
2, 9330
2, 9346
2, 9394
2, 9314
2, 9298
2, 9282
2, 9266
2, 9250
2, 9234
2, 9202
2, 9218
2, 9186
2, 9154
2, 9170
2, 9138
2, 9154
2, 9202
2, 9186
2, 9138
2, 9106
2, 9090
2, 9090
2, 9074
2, 9058
2, 9090
2, 9074
2, 9074
2, 9058
2, 9026
2, 9026
2, 9010
2, 9010
2, 8994
2, 8962
2, 8946
2, 8978
2, 8978
2, 8994
2, 8962
2, 8962
2, 8930
2, 8914
2, 8898
2, 8898
2, 8914
2, 8898
2, 8882
2, 8850
2, 8850
2, 8802
2, 8786
2, 8786
2, 8818
2, 8802
2, 8802
2, 8786
2, 8754
2, 8754
2, 8754
2, 8738
2, 8754
2, 8706
2, 8706
2, 8722
2, 8674
2, 8658
2, 8642
2, 8626
2, 8626
2, 8610
2, 8658
2, 8626
2, 8594
2, 8562
2, 8578
2, 8578
2, 8578
2, 8578
2, 8594
2, 8546
2, 8578
2, 8546
2, 8530
2, 8514
2, 8546
2, 8610
2, 8594
2, 8578
2, 8626
2, 8578
2, 8578
2, 8594
2, 8610
2, 8578
2, 8562
2, 8562
2, 8578
2, 8562
2, 8562
2, 8514
2, 8578
2, 8562
2, 8530
2, 8514
2, 8498
2, 8466
2, 8530
2, 8498
2, 8482
2, 8466
2, 8482
2, 8530
2, 8530
2, 8530
2, 8514
2, 8530
2, 8514
2, 8530
2, 8514
2, 8578
2, 8578
2, 8578
2, 8546
2, 8546
2, 8562
2, 8578
2, 8594
2, 8562
2, 8562
2, 8530
2, 8530
2, 8514
2, 8514
2, 8498
2, 8466
2, 8514
2, 8610
2, 8594
2, 8578
2, 8578
2, 8578
2, 8562
2, 8610
2, 8594
2, 8594
2, 8578
2, 8562
2, 8546
2, 8546
2, 8514
2, 8530
2, 8514
2, 8578
2, 8546
2, 8546
2, 8578
2, 8578
2, 8610
2, 8626
2, 8578
2, 8562
2, 8578
2, 8546
2, 8562
2, 8546
2, 8562
2, 8562
2, 8562
2, 8546
2, 8562
2, 8514
2, 8530
2, 8498
2, 8498
2, 8610
2, 8658
2, 8642
2, 8674
2, 8674
2, 8626
2, 8642
2, 8658
2, 8674
2, 8626
2, 8642
2, 8674
2, 8674
2, 8642
2, 8674
2, 8706
2, 8722
2, 8706
2, 8706
2, 8690
2, 8674
2, 8674
2, 8674
2, 8674
2, 8658
2, 8642
2, 8642
2, 8642
2, 8658
2, 8626
2, 8626
2, 8674
2, 8642
2, 8642
2, 8642
2, 8610
2, 8594
2, 8626
2, 8626
2, 8594
2, 8626
2, 8610
2, 8626
2, 8594
2, 8594
2, 8594
2, 8578
2, 8594
2, 8594
2, 8578
2, 8578
2, 8578
2, 8562
2, 8546
2, 8578
2, 8578
2, 8562
2, 8562
2, 8594
2, 8610
2, 8626
2, 8674
2, 8674
2, 8642
2, 8642
2, 8626
2, 8626
2, 8610
2, 8594
2, 8594
2, 8578
2, 8594
2, 8578
2, 8610
2, 8626
2, 8610
2, 8610
2, 8658
2, 8786
2, 8786
2, 8834
2, 8850
2, 8818
2, 8802
2, 8802
2, 8802
2, 8786
2, 8786
2, 8786
2, 8754
2, 8786
2, 8754
2, 8802
2, 8802
2, 8850
2, 8882
2, 8882
2, 8882
2, 8882
2, 8898
2, 8866
2, 8882
2, 8898
2, 8898
2, 8866
2, 8882
2, 8882
2, 8866
2, 8898
2, 8866
2, 8882
2, 8866
2, 8866
2, 8866
2, 8866
2, 8850
2, 8834
2, 8834
2, 8850
2, 8850
2, 8818
2, 8818
2, 8834
2, 8818
2, 8818
2, 8802
2, 8786
2, 8818
2, 8834
2, 8818
2, 8834
2, 8834
2, 8818
2, 8834
2, 8834
2, 8770
2, 8786
2, 8818
2, 8818
2, 8802
2, 8770
2, 8802
2, 8786
2, 8802
2, 8802
2, 8802
2, 8786
2, 8770
2, 8770
2, 8754
2, 8866
2, 8898
2, 8882
2, 8866
2, 8850
2, 8866
2, 8818
2, 8818
2, 8834
2, 8834
2, 8834
2, 8834
2, 8834
2, 8834
2, 8850
2, 8914
2, 8946
2, 8946
2, 8914
2, 8898
2, 8914
2, 8898
2, 8866
2, 8866
2, 8834
2, 8834
2, 8834
2, 8818
2, 8802
2, 8802
2, 8802
2, 8802
2, 8802
2, 8818
2, 8866
2, 8834
2, 8850
2, 8866
2, 8882
2, 8946
2, 8930
2, 8914
2, 8930
2, 8994
2, 8978
2, 8962
2, 9010
2, 8978
2, 8962
2, 8946
2, 8930
2, 8914
2, 8898
2, 8882
2, 8898
2, 8946
2, 8946
2, 8930
2, 8898
2, 8898
2, 8898
2, 8866
2, 8866
2, 8946
2, 8962
2, 8994
2, 8994
2, 8994
2, 8978
2, 8962
2, 8962
2, 8962
2, 8930
2, 8946
2, 8962
2, 8930
2, 8930
2, 8930
2, 8962
2, 8962
2, 8930
2, 8946
2, 8914
2, 8914
2, 8898
2, 8882
2, 8882
2, 8866
2, 8866
2, 8850
2, 8850
2, 8866
2, 8866
2, 8898
2, 8930
2, 9026
2, 9026
2, 9010
2, 8994
2, 8978
2, 8978
2, 8962
2, 8962
2, 8930
2, 8914
2, 8930
2, 8898
2, 8850
2, 8850
2, 8866
2, 8834
2, 8866
2, 8834
2, 8850
2, 8834
2, 8818
2, 8850
2, 8882
2, 8850
2, 8834
2, 8818
2, 8802
2, 8802
2, 8802
2, 8834
2, 8834
2, 8834
2, 8834
2, 8898
2, 8882
2, 8882
2, 8882
2, 8866
2, 8898
2, 8898
2, 8898
2, 8882
2, 8866
2, 8962
2, 9026
2, 9010
2, 9042
2, 9042
2, 9042
2, 9026
2, 9010
2, 9058
2, 9042
2, 9026
2, 9010
2, 9090
2, 9298
2, 9362
2, 9442
2, 9810
2, 10306
2, 10370
2, 10386
2, 10466
2, 10626
2, 10674
2, 10722
2, 10690
2, 10786
2, 10898
2, 10850
2, 10850
2, 11058
2, 11138
2, 11090
2, 11154
2, 11202
2, 11298
2, 11266
2, 11266
2, 11266
2, 11250
2, 11218
2, 11186
2, 11170
2, 11106
2, 11090
2, 11058
2, 11042
2, 11010
2, 10994
2, 10962
2, 11010
2, 11154
2, 11154
2, 11170
2, 11170
2, 11186
2, 11170
2, 11154
2, 11202
2, 11234
2, 11202
2, 11378
2, 11666
2, 11890
2, 11874
2, 11938
2, 12323
2, 12659
2, 12803
2, 12867
2, 12803
2, 12755
2, 12723
2, 12787
2, 13187
2, 13363
2, 13379
2, 13315
2, 13267
2, 13315
2, 13251
2, 13315
2, 13219
2, 13171
2, 13091
2, 13027
2, 13011
2, 12963
2, 12915
2, 12931
2, 12883
2, 12899
2, 12851
2, 12803
2, 12819
2, 12803
2, 12931
2, 12947
2, 12867
2, 12915
2, 12995
2, 13043
2, 13011
2, 12995
2, 12963
2, 12899
2, 12835
2, 12755
2, 12739
2, 12771
2, 13011
2, 13251
2, 13363
2, 13299
2, 13507
2, 13715
2, 13731
2, 13731
2, 13683
2, 13619
2, 13587
2, 13523
2, 13459
2, 13459
2, 13411
2, 13363
2, 13331
2, 13267
2, 13203
2, 13315
2, 13411
2, 13475
2, 13507
2, 13443
2, 13491
2, 13571
2, 13571
2, 13587
2, 13651
2, 13635
2, 13619
2, 13683
2, 13683
2, 13587
2, 13539
2, 13475
2, 13379
2, 13315
2, 13251
2, 13203
2, 13315
2, 13331
2, 13267
2, 13235
2, 13299
2, 13251
2, 13251
2, 13299
2, 13331
2, 13331
2, 13251
2, 13203
2, 13219
2, 13219
2, 13187
2, 13123
2, 13043
2, 13011
2, 12963
2, 12995
2, 13203
2, 13219
2, 13187
2, 13139
2, 13123
2, 13123
2, 13075
2, 12995
2, 12931
2, 13027
2, 13075
2, 13027
2, 12979
2, 12867
2, 12803
2, 12771
2, 12787
2, 12739
2, 12771
2, 12739
2, 12659
2, 12611
2, 12627
2, 12611
2, 12547
2, 12579
2, 12563
2, 12563
2, 12563
2, 12451
2, 12387
2, 12339
2, 12274
2, 12258
2, 12210
2, 12210
2, 12307
2, 12258
2, 12226
2, 12162
2, 12114
2, 12082
2, 12018
2, 11970
2, 11986
2, 11906
2, 12162
2, 12258
2, 12194
2, 12130
2, 12082
2, 12050
2, 12050
2, 12050
2, 12034
2, 12082
2, 12098
2, 12114
2, 12114
2, 12066
2, 12098
2, 12098
2, 12210
2, 12242
2, 12291
2, 12371
2, 12419
2, 12371
2, 12339
2, 12258
2, 12210
2, 12178
2, 12162
2, 12130
2, 12066
2, 12002
2, 11986
2, 11906
2, 11858
2, 11810
2, 11762
2, 11762
2, 11746
2, 11682
2, 11682
2, 11698
2, 11666
2, 11650
2, 11682
2, 11618
2, 11586
2, 11618
2, 11714
2, 11666
2, 11666
2, 11746
2, 11810
2, 11730
2, 11762
2, 11778
2, 11762
2, 11778
2, 11682
2, 11666
2, 11698
2, 11682
2, 11698
2, 11682
2, 11682
2, 11634
2, 11602
2, 11554
2, 11586
2, 11554
2, 11570
2, 11522
2, 11506
2, 11474
2, 11442
2, 11490
2, 11522
2, 11634
2, 11634
2, 11650
2, 11714
2, 11634
2, 11602
2, 11618
2, 11602
2, 11570
2, 11522
2, 11458
2, 11394
2, 11378
2, 11394
2, 11394
2, 11410
2, 11346
2, 11330
2, 11282
2, 11314
2, 11314
2, 11266
2, 11218
2, 11234
2, 11202
2, 11154
2, 11090
2, 11106
2, 11106
2, 11074
2, 11026
2, 10994
2, 11058
2, 11090
2, 11074
2, 11058
2, 11026
2, 10994
2, 10946
2, 10898
2, 10866
2, 10850
2, 10898
2, 10914
2, 10962
2, 10930
2, 10882
2, 10850
2, 10818
2, 10866
2, 10818
2, 10834
2, 10802
2, 10754
2, 10722
2, 10722
2, 10690
2, 10642
2, 10658
2, 10594
2, 10594
2, 10578
2, 10530
2, 10514
2, 10498
2, 10482
2, 10466
2, 10450
2, 10402
2, 10354
2, 10322
2, 10290
2, 10274
2, 10258
2, 10210
2, 10242
2, 10242
2, 10242
2, 10178
2, 10178
2, 10146
2, 10146
2, 10146
2, 10162
2, 10146
2, 10130
2, 10130
2, 10114
2, 10114
2, 10098
2, 10066
2, 10050
2, 10034
2, 10018
2, 10050
2, 10034
2, 10066
2, 10194
2, 10146
2, 10162
2, 10114
2, 10082
2, 10050
2, 10082
2, 10050
2, 9986
2, 9986
2, 9986
2, 9938
2, 9890
2, 9890
2, 9906
2, 9970
2, 9954
2, 9922
2, 9906
2, 9890
2, 9874
2, 9810
2, 9794
2, 9810
2, 9826
2, 9826
2, 9810
2, 9842
2, 9810
2, 9842
2, 9826
2, 9842
2, 9826
2, 9826
2, 9842
2, 9794
2, 9794
2, 9810
2, 9778
2, 9746
2, 9762
2, 9746
2, 9762
2, 9730
2, 9714
2, 9682
2, 9682
2, 9666
2, 9682
2, 9698
2, 9698
2, 9682
2, 9634
2, 9682
2, 9730
2, 9698
2, 9682
2, 9682
2, 9698
2, 9650
2, 9650
2, 9602
2, 9618
2, 9634
2, 9618
2, 9586
2, 9634
2, 9634
2, 9650
2, 9634
2, 9618
2, 9602
2, 9570
2, 9554
2, 9554
2, 9522
2, 9538
2, 9506
2, 9490
2, 9490
2, 9458
2, 9458
2, 9458
2, 9442
2, 9426
2, 9394
2, 9410
2, 9378
2, 9362
2, 9362
2, 9346
2, 9314
2, 9298
2, 9346
2, 9346
2, 9362
2, 9378
2, 9362
2, 9378
2, 9346
2, 9346
2, 9330
2, 9346
2, 9314
2, 9314
2, 9282
2, 9266
2, 9250
2, 9250
2, 9282
2, 9250
2, 9234
2, 9234
2, 9218
2, 9218
2, 9170
2, 9154
2, 9154
2, 9154
2, 9154
2, 9154
2, 9154
2, 9122
2, 9090
2, 9090
2, 9058
2, 9058
2, 9042
2, 8994
2, 8994
2, 9010
2, 8962
2, 8946
2, 8930
2, 8914
2, 8978
2, 9026
2, 8994
2, 8994
2, 8978
2, 8978
2, 8978
2, 8994
2, 8994
2, 8978
2, 8994
2, 9010
2, 8962
2, 8978
2, 8930
2, 8914
2, 8914
2, 8914
2, 8962
2, 8946
2, 8962
2, 8946
2, 8914
2, 8978
2, 8978
2, 8962
2, 8994
2, 8978
2, 8962
2, 8946
2, 8946
2, 8914
2, 8930
2, 8898
2, 8914
2, 8930
2, 8914
2, 8898
2, 8882
2, 8882
2, 8898
2, 8882
2, 8818
2, 8866
2, 8834
2, 8834
2, 8850
2, 8834
2, 8818
2, 8802
2, 8802
2, 8802
2, 8754
2, 8738
2, 8770
2, 8754
2, 8770
2, 8738
2, 8738
2, 8754
2, 8738
2, 8738
2, 8722
2, 8738
2, 8738
2, 8738
2, 8706
2, 8706
2, 8674
2, 8690
2, 8706
2, 8658
2, 8642
2, 8658
2, 8642
2, 8674
2, 8626
2, 8642
2, 8626
2, 8642
2, 8642
2, 8626
2, 8594
2, 8594
2, 8610
2, 8594
2, 8594
2, 8578
2, 8578
2, 8578
2, 8562
2, 8562
2, 8546
2, 8530
2, 8530
2, 8562
2, 8530
2, 8530
2, 8514
2, 8546
2, 8530
2, 8546
2, 8546
2, 8546
2, 8514
2, 8530
2, 8530
2, 8546
2, 8514
2, 8530
2, 8546
2, 8546
2, 8530
2, 8514
2, 8530
2, 8498
2, 8498
2, 8514
2, 8530
2, 8530
2, 8530
2, 8514
2, 8514
2, 8530
2, 8546
2, 8530
2, 8546
2, 8546
2, 8546
2, 8546
2, 8578
2, 8562
2, 8546
2, 8562
2, 8546
2, 8546
2, 8530
2, 8562
2, 8546
2, 8530
2, 8514
2, 8530
2, 8546
2, 8562
2, 8562
2, 8578
2, 8546
2, 8546
2, 8562
2, 8514
2, 8514
2, 8546
2, 8546
2, 8546
2, 8562
2, 8578
2, 8546
2, 8578
2, 8562
2, 8562
2, 8546
2, 8562
2, 8578
2, 8546
2, 8530
2, 8514
2, 8514
2, 8530
2, 8530
2, 8530
2, 8530
2, 8514
2, 8514
2, 8514
2, 8498
2, 8466
2, 8466
2, 8482
2, 8466
2, 8498
2, 8482
2, 8450
2, 8482
2, 8466
2, 8450
2, 8450
2, 8450
2, 8402
2, 8418
2, 8466
2, 8482
2, 8498
2, 8450
2, 8482
2, 8434
2, 8418
2, 8434
2, 8450
2, 8418
2, 8418
2, 8386
2, 8466
2, 8450
2, 8482
2, 8450
2, 8466
2, 8466
2, 8530
2, 8482
2, 8498
2, 8466
2, 8450
2, 8482
2, 8482
2, 8482
2, 8482
2, 8482
2, 8466
2, 8466
2, 8434
2, 8434
2, 8434
2, 8402
2, 8402
2, 8402
2, 8386
2, 8386
2, 8418
2, 8434
2, 8498
2, 8482
2, 8514
2, 8482
2, 8482
2, 8466
2, 8498
2, 8450
2, 8434
2, 8450
2, 8450
2, 8450
2, 8418
2, 8418
2, 8418
2, 8418
2, 8418
2, 8418
2, 8386
2, 8386
2, 8386
2, 8418
2, 8402
2, 8402
2, 8402
2, 8402
2, 8434
2, 8466
2, 8434
2, 8466
2, 8466
2, 8482
2, 8434
2, 8450
2, 8450
2, 8434
2, 8402
2, 8418
2, 8418
2, 8386
2, 8402
2, 8386
2, 8370
2, 8402
2, 8450
2, 8450
2, 8418
2, 8434
2, 8466
2, 8498
2, 8482
2, 8450
2, 8450
2, 8482
2, 8450
2, 8482
2, 8466
2, 8434
2, 8466
2, 8450
2, 8434
2, 8482
2, 8466
2, 8434
2, 8450
2, 8434
2, 8434
2, 8418
2, 8402
2, 8402
2, 8386
2, 8418
2, 8402
2, 8402
2, 8418
2, 8402
2, 8418
2, 8418
2, 8402
2, 8386
2, 8402
2, 8450
2, 8482
2, 8482
2, 8578
2, 8610
2, 8626
2, 8626
2, 8594
2, 8578
2, 8562
2, 8562
2, 8562
2, 8546
2, 8562
2, 8546
2, 8562
2, 8578
2, 8578
2, 8578
2, 8578
2, 8546
2, 8546
2, 8562
2, 8594
2, 8594
2, 8578
2, 8546
2, 8530
2, 8546
2, 8530
2, 8514
2, 8530
2, 8546
2, 8610
2, 8674
2, 8706
2, 8674
2, 8690
2, 8690
2, 8690
2, 8674
2, 8722
2, 8690
2, 8690
2, 8690
2, 8690
2, 8706
2, 8738
2, 8690
2, 8690
2, 8674
2, 8674
2, 8642
2, 8626
2, 8626
2, 8610
2, 8610
2, 8642
2, 8674
2, 8674
2, 8658
2, 8626
2, 8642
2, 8642
2, 8642
2, 8610
2, 8594
2, 8610
2, 8594
2, 8578
2, 8578
2, 8562
2, 8562
2, 8514
2, 8562
2, 8578
2, 8578
2, 8546
2, 8578
2, 8514
2, 8498
2, 8562
2, 8562
2, 8546
2, 8594
2, 8578
2, 8562
2, 8578
2, 8610
2, 8610
2, 8578
2, 8594
2, 8594
2, 8610
2, 8562
2, 8578
2, 8626
2, 8658
2, 8626
2, 8754
2, 8786
2, 8770
2, 8818
2, 8818
2, 8786
2, 8770
2, 8802
2, 8850
2, 8882
2, 8898
2, 8882
2, 8882
2, 8882
2, 8866
2, 8866
2, 8834
2, 8818
2, 8866
2, 8866
2, 8850
2, 8818
2, 8802
2, 8802
2, 8818
2, 8834
2, 8834
2, 8818
2, 8834
2, 8818
2, 8818
2, 8834
2, 8786
2, 8786
2, 8770
2, 8802
2, 8770
2, 8754
2, 8754
2, 8770
2, 8770
2, 8754
2, 8786
2, 8770
2, 8754
2, 8754
2, 8738
2, 8770
2, 8754
2, 8770
2, 8754
2, 8786
2, 8754
2, 8738
2, 8770
2, 8770
2, 8770
2, 8738
2, 8738
2, 8706
2, 8722
2, 8738
2, 8722
2, 8706
2, 8674
2, 8690
2, 8674
2, 8674
2, 8658
2, 8658
2, 8626
2, 8642
2, 8642
2, 8642
2, 8706
2, 8738
2, 8706
2, 8738
2, 8722
2, 8706
2, 8658
2, 8690
2, 8674
2, 8674
2, 8658
2, 8690
2, 8674
2, 8706
2, 8674
2, 8674
2, 8690
2, 8658
2, 8658
2, 8674
2, 8642
2, 8642
2, 8642
2, 8610
2, 8594
2, 8610
2, 8594
2, 8594
2, 8594
2, 8594
2, 8610
2, 8610
2, 8610
2, 8610
2, 8626
2, 8674
2, 8690
2, 8642
2, 8674
2, 8642
2, 8642
2, 8674
2, 8642
2, 8658
2, 8674
2, 8642
2, 8626
2, 8594
2, 8594
2, 8610
2, 8594
2, 8642
2, 8642
2, 8706
2, 8722
2, 8770
2, 8738
2, 8722
2, 8722
2, 8722
2, 8738
2, 8706
2, 8706
2, 8706
2, 8690
2, 8738
2, 8722
2, 8674
2, 8706
2, 8722
2, 8722
2, 8738
2, 8690
2, 8706
2, 8722
2, 8706
2, 8722
2, 8690
2, 8706
2, 8706
2, 8690
2, 8690
2, 8674
2, 8674
2, 8690
2, 8738
2, 8722
2, 8722
2, 8706
2, 8642
2, 8674
2, 8754
2, 8738
2, 8754
2, 8722
2, 8722
2, 8706
2, 8706
2, 8674
2, 8674
2, 8690
2, 8674
2, 8658
2, 8578
2, 8610
2, 8578
2, 8610
2, 8594
2, 8610
2, 8578
2, 8610
2, 8610
2, 8578
2, 8642
2, 8690
2, 8674
2, 8706
2, 8754
2, 8706
2, 8706
2, 8706
2, 8722
2, 8722
2, 8690
2, 8674
2, 8658
2, 8706
2, 8674
2, 8674
2, 8690
2, 8674
2, 8674
2, 8642
2, 8642
2, 8642
2, 8610
2, 8594
2, 8594
2, 8578
2, 8578
2, 8626
2, 8690
2, 8770
2, 8818
2, 8866
2, 8882
2, 8866
2, 8866
2, 8898
2, 8978
2, 9106
2, 9106
2, 9090
2, 9154
2, 9122
2, 9170
2, 9170
2, 9170
2, 9186
2, 9250
2, 9346
2, 9314
2, 9314
2, 9282
2, 9394
2, 9378
2, 9410
2, 9410
2, 9458
2, 9490
2, 9586
2, 9634
2, 9634
2, 9618
2, 9602
2, 9666
2, 9666
2, 9682
2, 9842
2, 10034
2, 10274
2, 10338
2, 10338
2, 10370
2, 10402
2, 10402
2, 10386
2, 10354
2, 10498
2, 10754
2, 10898
2, 10962
2, 11154
2, 11458
2, 11586
2, 11650
2, 11650
2, 11794
2, 11922
2, 11938
2, 11922
2, 11922
2, 11970
2, 11970
2, 12066
2, 12162
2, 12242
2, 12210
2, 12178
2, 12130
2, 12114
2, 12050
2, 12018
2, 11954
2, 11906
2, 11842
2, 11842
2, 11794
2, 11762
2, 11762
2, 11794
2, 11842
2, 11842
2, 11826
2, 11794
2, 11826
2, 11890
2, 11954
2, 11938
2, 11890
2, 11874
2, 11810
2, 11826
2, 11778
2, 11778
2, 11858
2, 11842
2, 11794
2, 11746
2, 11682
2, 11682
2, 11618
2, 11618
2, 11634
2, 11778
2, 11842
2, 11810
2, 11746
2, 11682
2, 11666
2, 11634
2, 11602
2, 11570
2, 11650
2, 11778
2, 11810
2, 11762
2, 11826
2, 11890
2, 12034
2, 12034
2, 11986
2, 11954
2, 11922
2, 11922
2, 11954
2, 11970
2, 11922
2, 11906
2, 11986
2, 12002
2, 12050
2, 12018
2, 12130
2, 12226
2, 12242
2, 12194
2, 12162
2, 12162
2, 12082
2, 12082
2, 12018
2, 12002
2, 11970
2, 11938
2, 12066
2, 12098
2, 12050
2, 11986
2, 11986
2, 12050
2, 12226
2, 12194
2, 12162
2, 12178
2, 12162
2, 12098
2, 12050
2, 12002
2, 11954
2, 11890
2, 11842
2, 11810
2, 11810
2, 11858
2, 11858
2, 11954
2, 12002
2, 11970
2, 12162
2, 12274
2, 12242
2, 12210
2, 12162
2, 12242
2, 12258
2, 12210
2, 12178
2, 12130
2, 12066
2, 12034
2, 12162
2, 12242
2, 12178
2, 12194
2, 12307
2, 12403
2, 12371
2, 12387
2, 12387
2, 12323
2, 12339
2, 12323
2, 12274
2, 12242
2, 12258
2, 12291
2, 12242
2, 12162
2, 12114
2, 12082
2, 12066
2, 12034
2, 12050
2, 12002
2, 11970
2, 11954
2, 11906
2, 11922
2, 11922
2, 11954
2, 11938
2, 11906
2, 12050
2, 12034
2, 12002
2, 12002
2, 12002
2, 12002
2, 11970
2, 12066
2, 12098
2, 12018
2, 12018
2, 12018
2, 12002
2, 12082
2, 12066
2, 12034
2, 11970
2, 11954
2, 11906
2, 11858
2, 11858
2, 11858
2, 11906
2, 11890
2, 11826
2, 11762
2, 11698
2, 11730
2, 11698
2, 11666
2, 11618
2, 11586
2, 11586
2, 11554
2, 11506
2, 11458
2, 11394
2, 11410
2, 11442
2, 11442
2, 11426
2, 11458
2, 11426
2, 11362
2, 11314
2, 11282
2, 11330
2, 11298
2, 11298
2, 11378
2, 11538
2, 11474
2, 11570
2, 11602
2, 11746
2, 11794
2, 11778
2, 11810
2, 11794
2, 11746
2, 11682
2, 11650
2, 11618
2, 11586
2, 11506
2, 11490
2, 11410
2, 11346
2, 11330
2, 11298
2, 11250
2, 11218
2, 11218
2, 11330
2, 11394
2, 11394
2, 11346
2, 11522
2, 11794
2, 11858
2, 11842
2, 11986
2, 12210
2, 12226
2, 12162
2, 12130
2, 12162
2, 12066
2, 12066
2, 12050
2, 12002
2, 11938
2, 11890
2, 11922
2, 11954
2, 11890
2, 11922
2, 11922
2, 11858
2, 11826
2, 11746
2, 11730
2, 11714
2, 11666
2, 11618
2, 11586
2, 11570
2, 11554
2, 11586
2, 11586
2, 11490
2, 11458
2, 11426
2, 11442
2, 11426
2, 11426
2, 11410
2, 11346
2, 11282
2, 11362
2, 11362
2, 11298
2, 11298
2, 11266
2, 11266
2, 11266
2, 11314
2, 11282
2, 11282
2, 11362
2, 11330
2, 11314
2, 11394
2, 11346
2, 11410
2, 11394
2, 11362
2, 11442
2, 11474
2, 11426
2, 11474
2, 11426
2, 11378
2, 11330
2, 11282
2, 11186
2, 11186
2, 11154
2, 11154
2, 11122
2, 11106
2, 11090
2, 11074
2, 11090
2, 11074
2, 11074
2, 11026
2, 11010
2, 10946
2, 10930
2, 10850
2, 10834
2, 10834
2, 10834
2, 10770
2, 10770
2, 10754
2, 10722
2, 10706
2, 10706
2, 10738
2, 10738
2, 10738
2, 10722
2, 10690
2, 10642
2, 10562
2, 10610
2, 10626
2, 10594
2, 10578
2, 10530
2, 10498
2, 10466
2, 10434
2, 10418
2, 10370
2, 10354
2, 10354
2, 10322
2, 10290
2, 10274
2, 10210
2, 10210
2, 10146
2, 10178
2, 10162
2, 10178
2, 10226
2, 10146
2, 10146
2, 10146
2, 10114
2, 10066
2, 10034
2, 10034
2, 9986
2, 9970
2, 9954
2, 9954
2, 9922
2, 9938
2, 9922
2, 9890
2, 9922
2, 9890
2, 9874
2, 9874
2, 9890
2, 9890
2, 9874
2, 9874
2, 9890
2, 9842
2, 9858
2, 9826
2, 9778
2, 9778
2, 9730
2, 9730
2, 9698
2, 9714
2, 9650
2, 9634
2, 9618
2, 9586
2, 9570
2, 9602
2, 9570
2, 9554
2, 9522
2, 9522
2, 9538
2, 9522
2, 9490
2, 9442
2, 9442
2, 9458
2, 9378
2, 9378
2, 9378
2, 9378
2, 9346
2, 9346
2, 9314
2, 9426
2, 9426
2, 9442
2, 9458
2, 9426
2, 9410
2, 9362
2, 9410
2, 9378
2, 9378
2, 9330
2, 9314
2, 9314
2, 9314
2, 9330
2, 9298
2, 9330
2, 9314
2, 9282
2, 9266
2, 9250
2, 9250
2, 9234
2, 9250
2, 9266
2, 9234
2, 9218
2, 9218
2, 9186
2, 9170
2, 9154
2, 9186
2, 9202
2, 9170
2, 9138
2, 9154
2, 9122
2, 9090
2, 9090
2, 9106
2, 9090
2, 9090
2, 9106
2, 9106
2, 9090
2, 9058
2, 9074
2, 9026
2, 9058
2, 8994
2, 8978
2, 8994
2, 8962
2, 8962
2, 9010
2, 9010
2, 9026
2, 9010
2, 8978
2, 8978
2, 8978
2, 8946
2, 8978
2, 8962
2, 8978
2, 8962
2, 8930
2, 8914
2, 8898
2, 8866
2, 8866
2, 8850
2, 8834
2, 8866
2, 8850
2, 8818
2, 8818
2, 8818
2, 8834
2, 8834
2, 8818
2, 8786
2, 8754
2, 8754
2, 8722
2, 8722
2, 8738
2, 8770
2, 8818
2, 8770
2, 8770
2, 8738
2, 8722
2, 8738
2, 8738
2, 8738
2, 8722
2, 8706
2, 8690
2, 8690
2, 8658
2, 8642
2, 8642
2, 8610
2, 8578
2, 8594
2, 8594
2, 8594
2, 8578
2, 8578
2, 8578
2, 8546
2, 8562
2, 8546
2, 8546
2, 8514
2, 8546
2, 8514
2, 8530
2, 8482
2, 8514
2, 8498
2, 8546
2, 8546
2, 8546
2, 8514
2, 8498
2, 8514
2, 8514
2, 8482
2, 8466
2, 8466
2, 8466
2, 8466
2, 8466
2, 8482
2, 8466
2, 8482
2, 8514
2, 8498
2, 8482
2, 8466
2, 8450
2, 8466
2, 8466
2, 8482
2, 8466
2, 8466
2, 8450
2, 8402
2, 8418
2, 8450
2, 8434
2, 8434
2, 8434
2, 8402
2, 8402
2, 8386
2, 8418
2, 8450
2, 8498
2, 8498
2, 8482
2, 8466
2, 8466
2, 8514
2, 8530
2, 8514
2, 8546
2, 8514
2, 8514
2, 8578
2, 8578
2, 8578
2, 8594
2, 8546
2, 8546
2, 8546
2, 8514
2, 8482
2, 8498
2, 8482
2, 8482
2, 8482
2, 8498
2, 8482
2, 8450
2, 8466
2, 8450
2, 8482
2, 8466
2, 8482
2, 8466
2, 8450
2, 8450
2, 8434
2, 8450
2, 8450
2, 8434
2, 8418
2, 8418
2, 8386
2, 8386
2, 8386
2, 8386
2, 8402
2, 8386
2, 8418
2, 8386
2, 8402
2, 8418
2, 8450
2, 8450
2, 8418
2, 8402
2, 8434
2, 8434
2, 8418
2, 8418
2, 8386
2, 8402
2, 8386
2, 8386
2, 8370
2, 8370
2, 8370
2, 8370
2, 8370
2, 8402
2, 8402
2, 8402
2, 8370
2, 8402
2, 8370
2, 8370
2, 8434
2, 8418
2, 8402
2, 8434
2, 8450
2, 8450
2, 8450
2, 8418
2, 8418
2, 8434
2, 8402
2, 8418
2, 8418
2, 8402
2, 8434
2, 8466
2, 8434
2, 8450
2, 8434
2, 8450
2, 8466
2, 8450
2, 8482
2, 8466
2, 8482
2, 8450
2, 8450
2, 8450
2, 8466
2, 8498
2, 8466
2, 8482
2, 8450
2, 8450
2, 8434
2, 8418
2, 8418
2, 8418
2, 8386
2, 8418
2, 8386
2, 8418
2, 8418
2, 8450
2, 8402
2, 8418
2, 8418
2, 8418
2, 8418
2, 8402
2, 8418
2, 8418
2, 8402
2, 8418
2, 8402
2, 8402
2, 8402
2, 8402
2, 8434
2, 8434
2, 8418
2, 8402
2, 8450
2, 8434
2, 8402
2, 8466
2, 8434
2, 8418
2, 8450
2, 8450
2, 8450
2, 8450
2, 8434
2, 8434
2, 8434
2, 8450
2, 8402
2, 8386
2, 8418
2, 8418
2, 8418
2, 8418
2, 8466
2, 8434
2, 8466
2, 8466
2, 8466
2, 8450
2, 8434
2, 8450
2, 8434
2, 8418
2, 8418
2, 8466
2, 8434
2, 8450
2, 8434
2, 8466
2, 8450
2, 8450
2, 8450
2, 8418
2, 8418
2, 8418
2, 8418
2, 8418
2, 8418
2, 8434
2, 8402
2, 8354
2, 8418
2, 8450
2, 8450
2, 8418
2, 8450
2, 8450
2, 8450
2, 8434
2, 8402
2, 8418
2, 8434
2, 8418
2, 8434
2, 8418
2, 8450
2, 8482
2, 8450
2, 8450
2, 8482
2, 8498
2, 8482
2, 8482
2, 8546
2, 8546
2, 8578
2, 8578
2, 8578
2, 8578
2, 8562
2, 8578
2, 8578
2, 8610
2, 8610
2, 8578
2, 8562
2, 8562
2, 8578
2, 8546
2, 8530
2, 8514
2, 8562
2, 8594
2, 8594
2, 8578
2, 8594
2, 8594
2, 8578
2, 8562
2, 8594
2, 8610
2, 8594
2, 8578
2, 8594
2, 8610
2, 8610
2, 8626
2, 8594
2, 8610
2, 8578
2, 8578
2, 8562
2, 8562
2, 8562
2, 8578
2, 8578
2, 8562
2, 8546
2, 8530
2, 8562
2, 8562
2, 8530
2, 8498
2, 8514
2, 8498
2, 8482
2, 8450
2, 8498
2, 8498
2, 8498
2, 8482
2, 8498
2, 8610
2, 8594
2, 8594
2, 8610
2, 8610
2, 8626
2, 8610
2, 8594
2, 8594
2, 8578
2, 8562
2, 8562
2, 8562
2, 8562
2, 8578
2, 8530
2, 8578
2, 8594
2, 8610
2, 8594
2, 8594
2, 8578
2, 8610
2, 8610
2, 8626
2, 8578
2, 8578
2, 8562
2, 8610
2, 8594
2, 8594
2, 8578
2, 8578
2, 8562
2, 8578
2, 8514
2, 8482
2, 8546
2, 8514
2, 8530
2, 8594
2, 8642
2, 8642
2, 8626
2, 8658
2, 8674
2, 8642
2, 8642
2, 8674
2, 8658
2, 8658
2, 8610
2, 8642
2, 8642
2, 8610
2, 8642
2, 8626
2, 8578
2, 8626
2, 8658
2, 8674
2, 8658
2, 8642
2, 8610
2, 8594
2, 8642
2, 8642
2, 8674
2, 8642
2, 8642
2, 8642
2, 8658
2, 8626
2, 8642
2, 8674
2, 8738
2, 8722
2, 8738
2, 8770
2, 8754
2, 8770
2, 8754
2, 8754
2, 8738
2, 8690
2, 8722
2, 8786
2, 8754
2, 8738
2, 8722
2, 8738
2, 8722
2, 8722
2, 8690
2, 8706
2, 8674
2, 8690
2, 8674
2, 8690
2, 8674
2, 8642
2, 8626
2, 8626
2, 8626
2, 8706
2, 8706
2, 8706
2, 8690
2, 8706
2, 8722
2, 8738
2, 8722
2, 8754
2, 8722
2, 8722
2, 8706
2, 8706
2, 8722
2, 8706
2, 8674
2, 8690
2, 8674
2, 8706
2, 8690
2, 8706
2, 8706
2, 8690
2, 8690
2, 8674
2, 8674
2, 8674
2, 8674
2, 8658
2, 8642
2, 8690
2, 8658
2, 8658
2, 8690
2, 8706
2, 8690
2, 8674
2, 8642
2, 8626
2, 8610
2, 8642
2, 8626
2, 8610
2, 8626
2, 8610
2, 8594
2, 8610
2, 8610
2, 8594
2, 8578
2, 8578
2, 8578
2, 8562
2, 8546
2, 8530
2, 8562
2, 8562
2, 8578
2, 8546
2, 8562
2, 8594
2, 8610
2, 8610
2, 8626
2, 8610
2, 8610
2, 8594
2, 8610
2, 8610
2, 8626
2, 8610
2, 8594
2, 8578
2, 8578
2, 8562
2, 8578
2, 8546
2, 8546
2, 8562
2, 8578
2, 8546
2, 8546
2, 8514
2, 8514
2, 8514
2, 8498
2, 8514
2, 8514
2, 8514
2, 8482
2, 8482
2, 8498
2, 8514
2, 8498
2, 8498
2, 8530
2, 8594
2, 8594
2, 8610
2, 8594
2, 8546
2, 8578
2, 8546
2, 8546
2, 8546
2, 8562
2, 8562
2, 8530
2, 8546
2, 8530
2, 8530
2, 8498
2, 8514
2, 8482
2, 8498
2, 8482
2, 8482
2, 8482
2, 8482
2, 8450
2, 8482
2, 8450
2, 8434
2, 8450
2, 8482
2, 8466
2, 8466
2, 8482
2, 8482
2, 8498
2, 8514
2, 8498
2, 8482
2, 8466
2, 8450
2, 8482
2, 8498
2, 8450
2, 8434
2, 8466
2, 8466
2, 8450
2, 8418
2, 8434
2, 8466
2, 8466
2, 8418
2, 8386
2, 8402
2, 8370
2, 8370
2, 8386
2, 8354
2, 8434
2, 8402
2, 8450
2, 8402
2, 8402
2, 8386
2, 8418
2, 8402
2, 8386
2, 8386
2, 8418
2, 8434
2, 8450
2, 8418
2, 8450
2, 8434
2, 8418
2, 8434
2, 8370
2, 8450
2, 8482
2, 8594
2, 8610
2, 8626
2, 8610
2, 8626
2, 8754
2, 8914
2, 8962
2, 8930
2, 9010
2, 9090
2, 9234
2, 9314
2, 9330
2, 9330
2, 9346
2, 9314
2, 9346
2, 9330
2, 9346
2, 9346
2, 9330
2, 9346
2, 9394
2, 9458
2, 9474
2, 9490
2, 9650
2, 9698
2, 9666
2, 9730
2, 9794
2, 9826
2, 9858
2, 9890
2, 9970
2, 9986
2, 9906
2, 9874
2, 9922
2, 9986
2, 10098
2, 10242
2, 10290
2, 10418
2, 10482
2, 10434
2, 10498
2, 10466
2, 10466
2, 10418
2, 10386
2, 10402
2, 10418
2, 10450
2, 10610
2, 10706
2, 10770
2, 10770
2, 10690
2, 10706
2, 10722
2, 10690
2, 10690
2, 10850
2, 10818
2, 10770
2, 10770
2, 10738
2, 10738
2, 10722
2, 10690
2, 10706
2, 10674
2, 10642
2, 10722
2, 10786
2, 10914
2, 10882
2, 10866
2, 10834
2, 10962
2, 11202
2, 11234
2, 11218
2, 11250
2, 11234
2, 11218
2, 11186
2, 11202
2, 11298
2, 11298
2, 11426
2, 11394
2, 11490
2, 11522
2, 11474
2, 11442
2, 11442
2, 11458
2, 11426
2, 11394
2, 11394
2, 11362
2, 11314
2, 11346
2, 11410
2, 11362
2, 11346
2, 11282
2, 11250
2, 11282
2, 11234
2, 11202
2, 11202
2, 11202
2, 11154
2, 11154
2, 11154
2, 11170
2, 11138
2, 11090
2, 11074
2, 11058
2, 10978
2, 10962
2, 10914
2, 10946
2, 10962
2, 10914
2, 10946
2, 10946
2, 10946
2, 10898
2, 10866
2, 10962
2, 10994
2, 11074
2, 11298
2, 11282
2, 11298
2, 11378
2, 11474
2, 11554
2, 11538
2, 11586
2, 11618
2, 11570
2, 11554
2, 11570
2, 11602
2, 11618
2, 11554
2, 11490
2, 11458
2, 11474
2, 11458
2, 11474
2, 11442
2, 11410
2, 11362
2, 11378
2, 11346
2, 11346
2, 11330
2, 11298
2, 11266
2, 11218
2, 11250
2, 11298
2, 11266
2, 11250
2, 11234
2, 11154
2, 11138
2, 11122
2, 11186
2, 11186
2, 11138
2, 11122
2, 11074
2, 11026
2, 10994
2, 10962
2, 10914
2, 10882
2, 10850
2, 10834
2, 10802
2, 10754
2, 10770
2, 10802
2, 10834
2, 10882
2, 10818
2, 10802
2, 10754
2, 10738
2, 10802
2, 10754
2, 10786
2, 10802
2, 10770
2, 10738
2, 10690
2, 10690
2, 10722
2, 10786
2, 10770
2, 10706
2, 10690
2, 10642
2, 10658
2, 10738
2, 10722
2, 10866
2, 10914
2, 10898
2, 10834
2, 10882
2, 10946
2, 10914
2, 10946
2, 10930
2, 10962
2, 10914
2, 10850
2, 10930
2, 10994
2, 10946
2, 10930
2, 10994
2, 10978
2, 10994
2, 10978
2, 10946
2, 10898
2, 10866
2, 10850
2, 10850
2, 10818
2, 10770
2, 10754
2, 10674
2, 10738
2, 10786
2, 10786
2, 10818
2, 10818
2, 10834
2, 10818
2, 10770
2, 10754
2, 10754
2, 10722
2, 10690
2, 10674
2, 10706
2, 10674
2, 10642
2, 10610
2, 10658
2, 10642
2, 10578
2, 10578
2, 10658
2, 10658
2, 10642
2, 10610
2, 10530
2, 10498
2, 10498
2, 10482
2, 10466
2, 10482
2, 10466
2, 10434
2, 10434
2, 10482
2, 10562
2, 10514
2, 10530
2, 10498
2, 10514
2, 10434
2, 10562
2, 10546
2, 10546
2, 10514
2, 10450
2, 10466
2, 10434
2, 10418
2, 10434
2, 10434
2, 10418
2, 10370
2, 10386
2, 10338
2, 10322
2, 10322
2, 10290
2, 10338
2, 10322
2, 10290
2, 10274
2, 10226
2, 10194
2, 10162
2, 10130
2, 10114
2, 10146
2, 10082
2, 10066
2, 10034
2, 10050
2, 10018
2, 9970
2, 9954
2, 9938
2, 9906
2, 9906
2, 9842
2, 9842
2, 9890
2, 9890
2, 9874
2, 9858
2, 9826
2, 9970
2, 10114
2, 10130
2, 10242
2, 10354
2, 10354
2, 10338
2, 10274
2, 10242
2, 10226
2, 10242
2, 10258
2, 10226
2, 10194
2, 10194
2, 10242
2, 10274
2, 10242
2, 10226
2, 10194
2, 10194
2, 10178
2, 10146
2, 10114
2, 10146
2, 10130
2, 10114
2, 10162
2, 10130
2, 10114
2, 10114
2, 10050
2, 10130
2, 10098
2, 10082
2, 10050
2, 10018
2, 9986
2, 9954
2, 9922
2, 9906
2, 9890
2, 9874
2, 9858
2, 9858
2, 9810
2, 9794
2, 9810
2, 9858
2, 9874
2, 9890
2, 9890
2, 9874
2, 9938
2, 9906
2, 9890
2, 9874
2, 9858
2, 9874
2, 9890
2, 9874
2, 9842
2, 9842
2, 9874
2, 9874
2, 9842
2, 9858
2, 9842
2, 9810
2, 9810
2, 9794
2, 9746
2, 9730
2, 9714
2, 9682
2, 9650
2, 9650
2, 9618
2, 9634
2, 9570
2, 9570
2, 9570
2, 9634
2, 9602
2, 9570
2, 9570
2, 9506
2, 9490
2, 9506
2, 9474
2, 9458
2, 9410
2, 9394
2, 9394
2, 9394
2, 9378
2, 9410
2, 9410
2, 9378
2, 9346
2, 9330
2, 9378
2, 9394
2, 9362
2, 9394
2, 9362
2, 9346
2, 9314
2, 9346
2, 9346
2, 9346
2, 9298
2, 9314
2, 9282
2, 9282
2, 9250
2, 9250
2, 9250
2, 9218
2, 9266
2, 9250
2, 9314
2, 9218
2, 9266
2, 9298
2, 9298
2, 9266
2, 9250
2, 9266
2, 9218
2, 9202
2, 9202
2, 9234
2, 9218
2, 9218
2, 9202
2, 9170
2, 9154
2, 9138
2, 9138
2, 9122
2, 9090
2, 9106
2, 9074
2, 9122
2, 9058
2, 9058
2, 9074
2, 9106
2, 9090
2, 9090
2, 8994
2, 9058
2, 9042
2, 9010
2, 8994
2, 8978
2, 8994
2, 8946
2, 8930
2, 8930
2, 8946
2, 8946
2, 8930
2, 8930
2, 8898
2, 8898
2, 8914
2, 8882
2, 8866
2, 8898
2, 8898
2, 8882
2, 8866
2, 8866
2, 8818
2, 8834
2, 8850
2, 8834
2, 8802
2, 8818
2, 8866
2, 8898
2, 8882
2, 8834
2, 8834
2, 8818
2, 8818
2, 8818
2, 8786
2, 8770
2, 8754
2, 8754
2, 8738
2, 8738
2, 8738
2, 8738
2, 8738
2, 8706
2, 8706
2, 8674
2, 8658
2, 8642
2, 8658
2, 8674
2, 8674
2, 8642
2, 8642
2, 8626
2, 8642
2, 8674
2, 8658
2, 8674
2, 8642
2, 8642
2, 8658
2, 8658
2, 8642
2, 8610
2, 8658
2, 8658
2, 8658
2, 8594
2, 8578
2, 8578
2, 8594
2, 8578
2, 8594
2, 8594
2, 8578
2, 8562
2, 8514
2, 8546
2, 8530
2, 8530
2, 8514
2, 8530
2, 8514
2, 8530
2, 8514
2, 8530
2, 8578
2, 8546
2, 8530
2, 8562
2, 8530
2, 8546
2, 8530
2, 8562
2, 8530
2, 8514
2, 8530
2, 8514
2, 8562
2, 8546
2, 8530
2, 8546
2, 8546
2, 8546
2, 8514
2, 8546
2, 8546
2, 8546
2, 8578
2, 8530
2, 8562
2, 8530
2, 8530
2, 8514
2, 8514
2, 8514
2, 8514
2, 8498
2, 8530
2, 8514
2, 8482
2, 8498
2, 8514
2, 5777
2, 5761
2, 5745
2, 5745
2, 5777
2, 5841
2, 5793
2, 5777
2, 5761
2, 5761
2, 5697
2, 5697
2, 5729
2, 5713
2, 5729
2, 5729
2, 5729
2, 5729
2, 5713
2, 5681
2, 5681
2, 5681
2, 5633
2, 5601
2, 5617
2, 5649
2, 5633
2, 5601
2, 5601
2, 5585
2, 5585
2, 5569
2, 5553
2, 5505
2, 5505
2, 5505
2, 5441
2, 5441
2, 5441
2, 5425
2, 5409
2, 5393
2, 5377
2, 5377
2, 5361
2, 5377
2, 5361
2, 5441
2, 5457
2, 5457
2, 5505
2, 5473
2, 5473
2, 5505
2, 5505
2, 5505
2, 5489
2, 5473
2, 5473
2, 5473
2, 5537
2, 5457
2, 5489
2, 5457
2, 5457
2, 5441
2, 5425
2, 5425
2, 5393
2, 5393
2, 5393
2, 5361
2, 5313
2, 5377
2, 5425
2, 5457
2, 5409
2, 5409
2, 5393
2, 5393
2, 5377
2, 5377
2, 5377
2, 5409
2, 5441
2, 5425
2, 5441
2, 5425
2, 5409
2, 5409
2, 5393
2, 5377
2, 5377
2, 5361
2, 5345
2, 5361
2, 5345
2, 5345
2, 5345
2, 5313
2, 5329
2, 5313
2, 5297
2, 5313
2, 5265
2, 5265
2, 5233
2, 5249
2, 5249
2, 5233
2, 5185
2, 5217
2, 5233
2, 5249
2, 5249
2, 5217
2, 5201
2, 5217
2, 5185
2, 5217
2, 5201
2, 5185
2, 5153
2, 5137
2, 5137
2, 5121
2, 5153
2, 5105
2, 5121
2, 5089
2, 5089
2, 5089
2, 5089
2, 5089
2, 5105
2, 5121
2, 5169
2, 5153
2, 5121
2, 5153
2, 5105
2, 5089
2, 5121
2, 5105
2, 5105
2, 5089
2, 5089
2, 5121
2, 5121
2, 5089
2, 5089
2, 5089
2, 5089
2, 5105
2, 5073
2, 5089
2, 5025
2, 5041
2, 5105
2, 5089
2, 5089
2, 5041
2, 5041
2, 5025
2, 5009
2, 5041
2, 5041
2, 5025
2, 5009
2, 4993
2, 5009
2, 4993
2, 5009
2, 4977
2, 4961
2, 5041
2, 4977
2, 4977
2, 4993
2, 4993
2, 4993
2, 4977
2, 5025
2, 5009
2, 5025
2, 4993
2, 5025
2, 5009
2, 4977
2, 4977
2, 4977
2, 4961
2, 4977
2, 4977
2, 4961
2, 4961
2, 4961
2, 4993
2, 4977
2, 4961
2, 4945
2, 4929
2, 4929
2, 4977
2, 4993
2, 4993
2, 4977
2, 4993
2, 4977
2, 4993
2, 4945
2, 4929
2, 4945
2, 4945
2, 4913
2, 4913
2, 4929
2, 4897
2, 4897
2, 4881
2, 4913
2, 4929
2, 4929
2, 4897
2, 4913
2, 5009
2, 4993
2, 4993
2, 5057
2, 4993
2, 5009
2, 5025
2, 4993
2, 5025
2, 5009
2, 5073
2, 5057
2, 5025
2, 5025
2, 5041
2, 5089
2, 5121
2, 5137
2, 5121
2, 5121
2, 5153
2, 5121
2, 5121
2, 5105
2, 5089
2, 5105
2, 5089
2, 5089
2, 5089
2, 5089
2, 5073
2, 5057
2, 5057
2, 5057
2, 5057
2, 5041
2, 5057
2, 5009
2, 5025
2, 5009
2, 5025
2, 5025
2, 5009
2, 4993
2, 5009
2, 4977
2, 4961
2, 5009
2, 4993
2, 5009
2, 4993
2, 4993
2, 4993
2, 5009
2, 5025
2, 5009
2, 5009
2, 4993
2, 4977
2, 4977
2, 4977
2, 5025
2, 5041
2, 5041
2, 5041
2, 5025
2, 5041
2, 5073
2, 5057
2, 5041
2, 5041
2, 5025
2, 5009
2, 5009
2, 5009
2, 4993
2, 5009
2, 5025
2, 5025
2, 5009
2, 4977
2, 4977
2, 4945
2, 4945
2, 4945
2, 4929
2, 4945
2, 4961
2, 4929
2, 4913
2, 4929
2, 4913
2, 4993
2, 5025
2, 5025
2, 5025
2, 5009
2, 5025
2, 5025
2, 5009
2, 5009
2, 5009
2, 4993
2, 4961
2, 4977
2, 4977
2, 4993
2, 4961
2, 4945
2, 4961
2, 4977
2, 5025
2, 5009
2, 5041
2, 5057
2, 5057
2, 5073
2, 5073
2, 5105
2, 5089
2, 5105
2, 5121
2, 5153
2, 5121
2, 5137
2, 5265
2, 5265
2, 5265
2, 5313
2, 5329
2, 5281
2, 5329
2, 5377
2, 5377
2, 5361
2, 5329
2, 5313
2, 5297
2, 5297
2, 5329
2, 5313
2, 5377
2, 5409
2, 5425
2, 5425
2, 5425
2, 5409
2, 5425
2, 5489
2, 5489
2, 5441
2, 5441
2, 5425
2, 5425
2, 5425
2, 5409
2, 5377
2, 5377
2, 5361
2, 5361
2, 5345
2, 5409
2, 5457
2, 5425
2, 5457
2, 5473
2, 5489
2, 5537
2, 5521
2, 5489
2, 5489
2, 5457
2, 5457
2, 5409
2, 5409
2, 5409
2, 5393
2, 5377
2, 5409
2, 5377
2, 5377
2, 5393
2, 5425
2, 5425
2, 5393
2, 5409
2, 5345
2, 5425
2, 5441
2, 5489
2, 5505
2, 5505
2, 5521
2, 5521
2, 5553
2, 5553
2, 5585
2, 5585
2, 5553
2, 5537
2, 5505
2, 5537
2, 5553
2, 5569
2, 5553
2, 5649
2, 5793
2, 5825
2, 5809
2, 5857
2, 5825
2, 5857
2, 5857
2, 5825
2, 5857
2, 5809
2, 5825
2, 5777
2, 5729
2, 5729
2, 5713
2, 5729
2, 5729
2, 5729
2, 5713
2, 5697
2, 5745
2, 5697
2, 5697
2, 5681
2, 5697
2, 5745
2, 5729
2, 5697
2, 5697
2, 5665
2, 5665
2, 5649
2, 5617
2, 5617
2, 5569
2, 5553
2, 5537
2, 5537
2, 5585
2, 5569
2, 5553
2, 5585
2, 5601
2, 5585
2, 5553
2, 5585
2, 5569
2, 5553
2, 5553
2, 5569
2, 5569
2, 5537
2, 5521
2, 5489
2, 5457
2, 5569
2, 5569
2, 5601
2, 5585
2, 5569
2, 5537
2, 5537
2, 5457
2, 5457
2, 5553
2, 5553
2, 5569
2, 5569
2, 5505
2, 5473
2, 5457
2, 5537
2, 5585
2, 5569
2, 5553
2, 5473
2, 5457
2, 5441
2, 5569
2, 5569
2, 5569
2, 5697
2, 5777
2, 5793
2, 5729
2, 5729
2, 5729
2, 5697
2, 5745
2, 5729
2, 5713
2, 5665
2, 5697
2, 5665
2, 5665
2, 5713
2, 5665
2, 5665
2, 5649
2, 5681
2, 5649
2, 5585
2, 5633
2, 5697
2, 5697
2, 5697
2, 5665
2, 5665
2, 5665
2, 5649
2, 5633
2, 5633
2, 5617
2, 5633
2, 5633
2, 5649
2, 5665
2, 5681
2, 5665
2, 5665
2, 5665
2, 5633
2, 5633
2, 5601
2, 5601
2, 5601
2, 5569
2, 5601
2, 5585
2, 5601
2, 5601
2, 5601
2, 5537
2, 5537
2, 5521
2, 5521
2, 5505
2, 5489
2, 5505
2, 5505
2, 5441
2, 5441
2, 5425
2, 5441
2, 5473
2, 5457
2, 5473
2, 5441
2, 5473
2, 5505
2, 5521
2, 5553
2, 5505
2, 5553
2, 5633
2, 5681
2, 5729
2, 5713
2, 5729
2, 5729
2, 5681
2, 5697
2, 5681
2, 5681
2, 5713
2, 5713
2, 5745
2, 5841
2, 5825
2, 5905
2, 5937
2, 5921
2, 5889
2, 5905
2, 5921
2, 5985
2, 5953
2, 5937
2, 5969
2, 6017
2, 6001
2, 6065
2, 6113
2, 6241
2, 6545
2, 6721
2, 6737
2, 6913
2, 7041
2, 7041
2, 7153
2, 7217
2, 7281
2, 7297
2, 7297
2, 7313
2, 7457
2, 7537
2, 7665
2, 7633
2, 7777
2, 7873
2, 7841
2, 7825
2, 7905
2, 8113
2, 8145
2, 8161
2, 8322
2, 8450
2, 8450
2, 8402
2, 8498
2, 8546
2, 8546
2, 8642
2, 8674
2, 8626
2, 8674
2, 8754
2, 8818
2, 8802
2, 8786
2, 8882
2, 9010
2, 8994
2, 9074
2, 9106
2, 9090
2, 9202
2, 9186
2, 9218
2, 9282
2, 9378
2, 9346
2, 9330
2, 9330
2, 9266
2, 9170
2, 9138
2, 9106
2, 9218
2, 9186
2, 9298
2, 9650
2, 9874
2, 9858
2, 9906
2, 9938
2, 9874
2, 9794
2, 9746
2, 9794
2, 9794
2, 9762
2, 9794
2, 9778
2, 9794
2, 9762
2, 9730
2, 9666
2, 9650
2, 9650
2, 9778
2, 9826
2, 9890
2, 9954
2, 9890
2, 9826
2, 9746
2, 9682
2, 9634
2, 9586
2, 9538
2, 9442
2, 9394
2, 9298
2, 9250
2, 9266
2, 9474
2, 9490
2, 9426
2, 9378
2, 9282
2, 9234
2, 9138
2, 9106
2, 9074
2, 9042
2, 8930
2, 8898
2, 8914
2, 8994
2, 8962
2, 8882
2, 8850
2, 8786
2, 8818
2, 8802
2, 8738
2, 8706
2, 8674
2, 8802
2, 8946
2, 8978
2, 9042
2, 9026
2, 8978
2, 8946
2, 8898
2, 8834
2, 8818
2, 8786
2, 8722
2, 8642
2, 8626
2, 8610
2, 8562
2, 8514
2, 8546
2, 8546
2, 8482
2, 8450
2, 8434
2, 8370
2, 8386
2, 8450
2, 8466
2, 8418
2, 8402
2, 8370
2, 8290
2, 8242
2, 8226
2, 8194
2, 8177
2, 8097
2, 8097
2, 7985
2, 7953
2, 7889
2, 7889
2, 7857
2, 7969
2, 8033
2, 7953
2, 8001
2, 8113
2, 8113
2, 8081
2, 8001
2, 8001
2, 7921
2, 7905
2, 7889
2, 7873
2, 7905
2, 7921
2, 7873
2, 7937
2, 7985
2, 7953
2, 7889
2, 7857
2, 7841
2, 7777
2, 7777
2, 7745
2, 7745
2, 7761
2, 7777
2, 7761
2, 7905
2, 7969
2, 7953
2, 7953
2, 7953
2, 7889
2, 7841
2, 7825
2, 7825
2, 7809
2, 7713
2, 7745
2, 7745
2, 7729
2, 7729
2, 7697
2, 7697
2, 7681
2, 7681
2, 7633
2, 7585
2, 7585
2, 7585
2, 7553
2, 7633
2, 7729
2, 7713
2, 7745
2, 7729
2, 7681
2, 7665
2, 7665
2, 7601
2, 7585
2, 7537
2, 7489
2, 7441
2, 7505
2, 7505
2, 7489
2, 7457
2, 7441
2, 7425
2, 7393
2, 7329
2, 7313
2, 7361
2, 7313
2, 7297
2, 7297
2, 7297
2, 7313
2, 7345
2, 7361
2, 7345
2, 7345
2, 7281
2, 7233
2, 7281
2, 7329
2, 7409
2, 7425
2, 7409
2, 7409
2, 7441
2, 7377
2, 7393
2, 7345
2, 7361
2, 7329
2, 7313
2, 7297
2, 7281
2, 7249
2, 7185
2, 7169
2, 7153
2, 7153
2, 7201
2, 7201
2, 7185
2, 7137
2, 7105
2, 7057
2, 7041
2, 6993
2, 6945
2, 6961
2, 6977
2, 7025
2, 7057
2, 7041
2, 7169
2, 7297
2, 7297
2, 7233
2, 7217
2, 7249
2, 7265
2, 7233
2, 7249
2, 7377
2, 7537
2, 7537
2, 7505
2, 7697
2, 7761
2, 7745
2, 7809
2, 7841
2, 7777
2, 7793
2, 7745
2, 7665
2, 7681
2, 7633
2, 7601
2, 7585
2, 7521
2, 7569
2, 7521
2, 7553
2, 7633
2, 7649
2, 7713
2, 7745
2, 7697
2, 7649
2, 7617
2, 7585
2, 7553
2, 7585
2, 7569
2, 7681
2, 7633
2, 7585
2, 7553
2, 7489
2, 7425
2, 7409
2, 7345
2, 7313
2, 7329
2, 7361
2, 7425
2, 7489
2, 7505
2, 7553
2, 7553
2, 7537
2, 7489
2, 7489
2, 7441
2, 7473
2, 7489
2, 7457
2, 7409
2, 7409
2, 7457
2, 7537
2, 7553
2, 7585
2, 7601
2, 7553
2, 7617
2, 7681
2, 7697
2, 7745
2, 7777
2, 7697
2, 7745
2, 7697
2, 7793
2, 7745
2, 7825
2, 7825
2, 7825
2, 7777
2, 7729
2, 7665
2, 7681
2, 7713
2, 7745
2, 7713
2, 7665
2, 7649
2, 7601
2, 7585
2, 7537
2, 7489
2, 7473
2, 7457
2, 7425
2, 7457
2, 7441
2, 7393
2, 7393
2, 7361
2, 7297
2, 7313
2, 7345
2, 7313
2, 7281
2, 7265
2, 7265
2, 7265
2, 7249
2, 7313
2, 7409
2, 7425
2, 7409
2, 7425
2, 7489
2, 7457
2, 7441
2, 7457
2, 7489
2, 7585
2, 7633
2, 7665
2, 7665
2, 7649
2, 7729
2, 7841
2, 7825
2, 7825
2, 7889
2, 7857
2, 7793
2, 7809
2, 7841
2, 7873
2, 7825
2, 7825
2, 7809
2, 7793
2, 7793
2, 7793
2, 7793
2, 7761
2, 7761
2, 7745
2, 7713
2, 7745
2, 7793
2, 7777
2, 7729
2, 7793
2, 7761
2, 7713
2, 7681
2, 7761
2, 7777
2, 7745
2, 7713
2, 7697
2, 7665
2, 7681
2, 7633
2, 7601
2, 7585
2, 7601
2, 7569
2, 7553
2, 7617
2, 7569
2, 7649
2, 7681
2, 7697
2, 7713
2, 7745
2, 7729
2, 7713
2, 7713
2, 7681
2, 7665
2, 7617
2, 7633
2, 7585
2, 7569
2, 7553
2, 7505
2, 7457
2, 7393
2, 7393
2, 7361
2, 7329
2, 7345
2, 7281
2, 7265
2, 7249
2, 7201
2, 7201
2, 7185
2, 7217
2, 7169
2, 7137
2, 7089
2, 7057
2, 7025
2, 6993
2, 6993
2, 6977
2, 6913
2, 6945
2, 6993
2, 6977
2, 6945
2, 6977
2, 6929
2, 6897
2, 6913
2, 6929
2, 6897
2, 6945
2, 6913
2, 6881
2, 6849
2, 6817
2, 6769
2, 6801
2, 6769
2, 6785
2, 6785
2, 6753
2, 6769
2, 6721
2, 6721
2, 6673
2, 6641
2, 6625
2, 6593
2, 6561
2, 6609
2, 6593
2, 6545
2, 6545
2, 6497
2, 6481
2, 6465
2, 6433
2, 6401
2, 6433
2, 6401
2, 6353
2, 6353
2, 6321
2, 6305
2, 6305
2, 6289
2, 6273
2, 6225
2, 6225
2, 6209
2, 6193
2, 6177
2, 6145
2, 6129
2, 6161
2, 6145
2, 6177
2, 6177
2, 6145
2, 6113
2, 6113
2, 6097
2, 6049
2, 6065
2, 6033
2, 6017
2, 6017
2, 6017
2, 6017
2, 6001
2, 6001
2, 6001
2, 5969
2, 6033
2, 6065
2, 6033
2, 6033
2, 5985
2, 5985
2, 6001
2, 5985
2, 5969
2, 5937
2, 5953
2, 5985
2, 6017
2, 6001
2, 5969
2, 5937
2, 5921
2, 5921
2, 5889
2, 5873
2, 5857
2, 5857
2, 5809
2, 5777
2, 5777
2, 5793
2, 5761
2, 5745
2, 5713
2, 5697
2, 5697
2, 5681
2, 5633
2, 5681
2, 5649
2, 5617
2, 5617
2, 5617
2, 5601
2, 5569
2, 5601
2, 5617
2, 5569
2, 5585
2, 5569
2, 5569
2, 5569
2, 5521
2, 5505
2, 5505
2, 5489
2, 5457
2, 5457
2, 5441
2, 5457
2, 5441
2, 5489
2, 5473
2, 5457
2, 5457
2, 5409
2, 5377
2, 5377
2, 5377
2, 5393
2, 5361
2, 5313
2, 5329
2, 5313
2, 5281
2, 5281
2, 5281
2, 5297
2, 5313
2, 5297
2, 5297
2, 5313
2, 5297
2, 5297
2, 5329
2, 5329
2, 5345
2, 5297
2, 5297
2, 5297
2, 5297
2, 5281
2, 5281
2, 5249
2, 5297
2, 5313
2, 5281
2, 5281
2, 5249
2, 5265
2, 5265
2, 5265
2, 5249
2, 5265
2, 5249
2, 5249
2, 5249
2, 5217
2, 5217
2, 5185
2, 5185
2, 5201
2, 5201
2, 5153
2, 5153
2, 5169
2, 5185
2, 5201
2, 5217
2, 5185
2, 5185
2, 5185
2, 5185
2, 5153
2, 5137
2, 5137
2, 5137
2, 5121
2, 5121
2, 5169
2, 5121
2, 5137
2, 5153
2, 5217
2, 5249
2, 5201
2, 5233
2, 5201
2, 5185
2, 5185
2, 5185
2, 5169
2, 5153
2, 5169
2, 5153
2, 5153
2, 5153
2, 5121
2, 5105
2, 5089
2, 5105
2, 5089
2, 5073
2, 5089
2, 5073
2, 5121
2, 5137
2, 5105
2, 5137
2, 5121
2, 5121
2, 5121
2, 5121
2, 5105
2, 5089
2, 5105
2, 5105
2, 5105
2, 5089
2, 5057
2, 5073
2, 5057
2, 5057
2, 5025
2, 5041
2, 4993
2, 5025
2, 5041
2, 5073
2, 5057
2, 5041
2, 5073
2, 5057
2, 5073
2, 5073
2, 5025
2, 5041
2, 5025
2, 5057
2, 5041
2, 5057
2, 5009
2, 5009
2, 4993
2, 5089
2, 5121
2, 5105
2, 5073
2, 5105
2, 5057
2, 5041
2, 5041
2, 5041
2, 5057
2, 5041
2, 5073
2, 5089
2, 5057
2, 5057
2, 5073
2, 5041
2, 5089
2, 5073
2, 5073
2, 5089
2, 5057
2, 5025
2, 5041
2, 5025
2, 5025
2, 5025
2, 5009
2, 5041
2, 5009
2, 5025
2, 5025
2, 4993
2, 4993
2, 5041
2, 5009
2, 5025
2, 5009
2, 4977
2, 5041
2, 5025
2, 5041
2, 5057
2, 5025
2, 5057
2, 5105
2, 5089
2, 5121
2, 5169
2, 5201
2, 5153
2, 5153
2, 5185
2, 5137
2, 5201
2, 5217
2, 5217
2, 5185
2, 5201
2, 5201
2, 5201
2, 5233
2, 5249
2, 5281
2, 5281
2, 5249
2, 5233
2, 5249
2, 5265
2, 5233
2, 5217
2, 5201
2, 5169
2, 5185
2, 5233
2, 5201
2, 5217
2, 5185
2, 5201
2, 5201
2, 5201
2, 5185
2, 5185
2, 5185
2, 5233
2, 5201
2, 5185
2, 5185
2, 5169
2, 5169
2, 5137
2, 5137
2, 5137
2, 5121
2, 5169
2, 5201
2, 5201
2, 5185
2, 5185
2, 5153
2, 5137
2, 5137
2, 5105
2, 5105
2, 5121
2, 5121
2, 5121
2, 5105
2, 5089
2, 5073
2, 5073
2, 5121
2, 5121
2, 5121
2, 5169
2, 5153
2, 5153
2, 5185
2, 5185
2, 5169
2, 5169
2, 5137
2, 5153
2, 5153
2, 5169
2, 5185
2, 5217
2, 5201
2, 5185
2, 5185
2, 5153
2, 5169
2, 5153
2, 5137
2, 5169
2, 5169
2, 5217
2, 5217
2, 5201
2, 5249
2, 5249
2, 5249
2, 5281
2, 5281
2, 5249
2, 5249
2, 5265
2, 5249
2, 5297
2, 5249
2, 5249
2, 5201
2, 5217
2, 5201
2, 5185
2, 5185
2, 5233
2, 5185
2, 5185
2, 5201
2, 5185
2, 5249
2, 5249
2, 5265
2, 5281
2, 5233
2, 5233
2, 5265
2, 5281
2, 5313
2, 5345
2, 5393
2, 5425
2, 5425
2, 5425
2, 5457
2, 5441
2, 5425
2, 5489
2, 5473
2, 5505
2, 5505
2, 5489
2, 5457
2, 5441
2, 5457
2, 5425
2, 5409
2, 5425
2, 5393
2, 5409
2, 5377
2, 5361
2, 5377
2, 5377
2, 5361
2, 5377
2, 5361
2, 5377
2, 5377
2, 5489
2, 5505
2, 5473
2, 5457
2, 5457
2, 5457
2, 5457
2, 5425
2, 5425
2, 5425
2, 5393
2, 5393
2, 5393
2, 5377
2, 5377
2, 5393
2, 5377
2, 5425
2, 5409
2, 5393
2, 5409
2, 5393
2, 5409
2, 5457
2, 5409
2, 5393
2, 5409
2, 5425
2, 5409
2, 5377
2, 5361
2, 5377
2, 5345
2, 5329
2, 5345
2, 5313
2, 5329
2, 5345
2, 5361
2, 5361
2, 5329
2, 5377
2, 5377
2, 5377
2, 5409
2, 5329
2, 5297
2, 5297
2, 5329
2, 5361
2, 5345
2, 5345
2, 5377
2, 5377
2, 5361
2, 5345
2, 5393
2, 5377
2, 5345
2, 5345
2, 5345
2, 5377
2, 5393
2, 5345
2, 5393
2, 5409
2, 5393
2, 5457
2, 5457
2, 5425
2, 5457
2, 5409
2, 5393
2, 5409
2, 5409
2, 5361
2, 5425
2, 5409
2, 5409
2, 5393
2, 5377
2, 5377
2, 5345
2, 5345
2, 5345
2, 5361
2, 5329
2, 5313
2, 5281
2, 5313
2, 5313
2, 5281
2, 5329
2, 5281
2, 5265
2, 5329
2, 5313
2, 5313
2, 5313
2, 5313
2, 5329
2, 5313
2, 5297
2, 5281
2, 5265
2, 5249
2, 5265
2, 5249
2, 5249
2, 5233
2, 5249
2, 5233
2, 5217
2, 5217
2, 5201
2, 5169
2, 5169
2, 5201
2, 5153
2, 5137
2, 5185
2, 5217
2, 5201
2, 5169
2, 5169
2, 5169
2, 5185
2, 5153
2, 5185
2, 5185
2, 5153
2, 5169
2, 5185
2, 5185
2, 5217
2, 5217
2, 5201
2, 5201
2, 5169
2, 5153
2, 5169
2, 5185
2, 5201
2, 5185
2, 5185
2, 5169
2, 5169
2, 5153
2, 5153
2, 5153
2, 5137
2, 5121
2, 5153
2, 5121
2, 5137
2, 5121
2, 5153
2, 5121
2, 5121
2, 5153
2, 5137
2, 5137
2, 5089
2, 5089
2, 5057
2, 5089
2, 5057
2, 5089
2, 5089
2, 5089
2, 5089
2, 5089
2, 5153
2, 5137
2, 5121
2, 5121
2, 5121
2, 5089
2, 5089
2, 5089
2, 5073
2, 5057
2, 5073
2, 5057
2, 5073
2, 5089
2, 5073
2, 5105
2, 5185
2, 5265
2, 5281
2, 5281
2, 5409
2, 5457
2, 5441
2, 5489
2, 5505
2, 5489
2, 5473
2, 5473
2, 5457
2, 5473
2, 5409
2, 5409
2, 5441
2, 5473
2, 5505
2, 5489
2, 5457
2, 5457
2, 5473
2, 5505
2, 5473
2, 5505
2, 5473
2, 5457
2, 5473
2, 5473
2, 5473
2, 5457
2, 5473
2, 5409
2, 5441
2, 5441
2, 5425
2, 5441
2, 5409
2, 5425
2, 5505
2, 5457
2, 5473
2, 5505
2, 5473
2, 5489
2, 5505
2, 5537
2, 5553
2, 5569
2, 5553
2, 5537
2, 5537
2, 5521
2, 5489
2, 5473
2, 5473
2, 5441
2, 5473
2, 5505
2, 5537
2, 5553
2, 5601
2, 5601
2, 5553
2, 5553
2, 5537
2, 5537
2, 5505
2, 5505
2, 5505
2, 5537
2, 5537
2, 5521
2, 5505
2, 5505
2, 5473
2, 5473
2, 5457
2, 5537
2, 5553
2, 5505
2, 5521
2, 5473
2, 5473
2, 5489
2, 5489
2, 5457
2, 5473
2, 5457
2, 5457
2, 5473
2, 5473
2, 5473
2, 5505
2, 5553
2, 5633
2, 5633
2, 5649
2, 5649
2, 5665
2, 5713
2, 5713
2, 5713
2, 5761
2, 5745
2, 5793
2, 5809
2, 5777
2, 5777
2, 5777
2, 5729
2, 5713
2, 5745
2, 5713
2, 5697
2, 5665
2, 5649
2, 5633
2, 5617
2, 5601
2, 5633
2, 5633
2, 5633
2, 5601
2, 5601
2, 5633
2, 5585
2, 5601
2, 5633
2, 5601
2, 5601
2, 5601
2, 5617
2, 5649
2, 5665
2, 5665
2, 5649
2, 5697
2, 5681
2, 5665
2, 5649
2, 5617
2, 5633
2, 5585
2, 5585
2, 5601
2, 5553
2, 5569
2, 5553
2, 5537
2, 5553
2, 5553
2, 5537
2, 5553
2, 5553
2, 5505
2, 5505
2, 5489
2, 5489
2, 5473
2, 5473
2, 5473
2, 5489
2, 5553
2, 5537
2, 5505
2, 5521
2, 5537
2, 5521
2, 5473
2, 5505
2, 5457
2, 5473
2, 5457
2, 5425
2, 5409
2, 5425
2, 5409
2, 5473
2, 5473
2, 5457
2, 5457
2, 5457
2, 5473
2, 5473
2, 5441
2, 5409
2, 5473
2, 5505
2, 5473
2, 5473
2, 5473
2, 5441
2, 5441
2, 5425
2, 5441
2, 5409
2, 5361
2, 5409
2, 5361
2, 5361
2, 5345
2, 5345
2, 5345
2, 5361
2, 5377
2, 5441
2, 5441
2, 5441
2, 5441
2, 5441
2, 5473
2, 5473
2, 5521
2, 5521
2, 5537
2, 5505
2, 5505
2, 5553
2, 5537
2, 5553
2, 5537
2, 5521
2, 5521
2, 5521
2, 5521
2, 5537
2, 5537
2, 5633
2, 5649
2, 5665
2, 5649
2, 5633
2, 5633
2, 5633
2, 5617
2, 5601
2, 5601
2, 5569
2, 5553
2, 5553
2, 5505
2, 5521
2, 5537
2, 5521
2, 5537
2, 5553
2, 5553
2, 5505
2, 5537
2, 5537
2, 5505
2, 5505
2, 5521
2, 5553
2, 5617
2, 5617
2, 5585
2, 5601
2, 5553
2, 5537
2, 5521
2, 5505
2, 5473
2, 5457
2, 5425
2, 5409
2, 5409
2, 5409
2, 5425
2, 5441
2, 5377
2, 5393
2, 5393
2, 5361
2, 5377
2, 5345
2, 5393
2, 5457
2, 5441
2, 5441
2, 5425
2, 5409
2, 5409
2, 5393
2, 5393
2, 5425
2, 5409
2, 5425
2, 5409
2, 5409
2, 5377
2, 5377
2, 5393
2, 5409
2, 5425
2, 5409
2, 5425
2, 5393
2, 5409
2, 5441
2, 5425
2, 5425
2, 5425
2, 5441
2, 5457
2, 5457
2, 5473
2, 5425
2, 5425
2, 5441
2, 5425
2, 5409
2, 5425
2, 5409
2, 5409
2, 5393
2, 5425
2, 5393
2, 5377
2, 5409
2, 5409
2, 5425
2, 5505
2, 5569
2, 5553
2, 5537
2, 5505
2, 5553
2, 5537
2, 5505
2, 5473
2, 5441
2, 5441
2, 5441
2, 5441
2, 5409
2, 5457
2, 5489
2, 5537
2, 5489
2, 5505
2, 5601
2, 5569
2, 5569
2, 5617
2, 5649
2, 5649
2, 5649
2, 5649
2, 5649
2, 5601
2, 5601
2, 5601
2, 5617
2, 5601
2, 5665
2, 5729
2, 5809
2, 5889
2, 5921
2, 5889
2, 5873
2, 5921
2, 6145
2, 6161
2, 6177
2, 6177
2, 6193
2, 6225
2, 6353
2, 6433
2, 6529
2, 6801
2, 7073
2, 7169
2, 7169
2, 7249
2, 7393
2, 7441
2, 7585
2, 7697
2, 7729
2, 7665
2, 7809
2, 8129
2, 8210
2, 8434
2, 8610
2, 8594
2, 8626
2, 8674
2, 8754
2, 8770
2, 8962
2, 9122
2, 9154
2, 9090
2, 9154
2, 9218
2, 9202
2, 9202
2, 9154
2, 9122
2, 9074
2, 9090
2, 9346
2, 9618
2, 9698
2, 9634
2, 9650
2, 9714
2, 9730
2, 9794
2, 9906
2, 9922
2, 9890
2, 9826
2, 9778
2, 9794
2, 9906
2, 10066
2, 10034
2, 9986
2, 9890
2, 9986
2, 9954
2, 9890
2, 9826
2, 9810
2, 9778
2, 9698
2, 9634
2, 9634
2, 9746
2, 9746
2, 9666
2, 9602
2, 9554
2, 9522
2, 9490
2, 9458
2, 9442
2, 9346
2, 9314
2, 9314
2, 9330
2, 9266
2, 9314
2, 9458
2, 9506
2, 9506
2, 9538
2, 9474
2, 9410
2, 9442
2, 9618
2, 9762
2, 9746
2, 9698
2, 9762
2, 9746
2, 9778
2, 9842
2, 9954
2, 9986
2, 10034
2, 9954
2, 9922
2, 9938
2, 10018
2, 10034
2, 10002
2, 9954
2, 9986
2, 9954
2, 9858
2, 9778
2, 9714
2, 9682
2, 9650
2, 9586
2, 9506
2, 9410
2, 9346
2, 9330
2, 9330
2, 9346
2, 9282
2, 9266
2, 9218
2, 9186
2, 9074
2, 9042
2, 8978
2, 8978
2, 8946
2, 8882
2, 8898
2, 8834
2, 8738
2, 8770
2, 8818
2, 8882
2, 8946
2, 8882
2, 8850
2, 8754
2, 8754
2, 8722
2, 8626
2, 8594
2, 8498
2, 8482
2, 8514
2, 8562
2, 8530
2, 8466
2, 8466
2, 8482
2, 8482
2, 8466
2, 8466
2, 8498
2, 8594
2, 8546
2, 8466
2, 8450
2, 8450
2, 8402
2, 8370
2, 8354
2, 8338
2, 8354
2, 8338
2, 8306
2, 8290
2, 8274
2, 8226
2, 8177
2, 8161
2, 8145
2, 8081
2, 8097
2, 8065
2, 8097
2, 8033
2, 7969
2, 7953
2, 7937
2, 7921
2, 7905
2, 7937
2, 7905
2, 7953
2, 7953
2, 7905
2, 7873
2, 7921
2, 7953
2, 8001
2, 8097
2, 8065
2, 8001
2, 8033
2, 7985
2, 7985
2, 7953
2, 7905
2, 7921
2, 7921
2, 7873
2, 7873
2, 7793
2, 7761
2, 7729
2, 7697
2, 7665
2, 7729
2, 7713
2, 7697
2, 7649
2, 7697
2, 7665
2, 7633
2, 7585
2, 7601
2, 7665
2, 7681
2, 7681
2, 7681
2, 7697
2, 7681
2, 7745
2, 7793
2, 7825
2, 7793
2, 7729
2, 7729
2, 7793
2, 7809
2, 7809
2, 7761
2, 7729
2, 7793
2, 7713
2, 7697
2, 7633
2, 7649
2, 7665
2, 7761
2, 7745
2, 7697
2, 7729
2, 7841
2, 7825
2, 7825
2, 7969
2, 7921
2, 7889
2, 7857
2, 7809
2, 7793
2, 7697
2, 7697
2, 7665
2, 7617
2, 7633
2, 7729
2, 7777
2, 7761
2, 7777
2, 7841
2, 7873
2, 7873
2, 7873
2, 7857
2, 8001
2, 7969
2, 7905
2, 7969
2, 8033
2, 7985
2, 8001
2, 8017
2, 8017
2, 7985
2, 7985
2, 8017
2, 7937
2, 7985
2, 8001
2, 8001
2, 7969
2, 7921
2, 7905
2, 8001
2, 7969
2, 7985
2, 7921
2, 7921
2, 7873
2, 7841
2, 7809
2, 7745
2, 7745
2, 7665
2, 7633
2, 7633
2, 7585
2, 7585
2, 7617
2, 7633
2, 7601
2, 7585
2, 7585
2, 7633
2, 7617
2, 7569
2, 7521
2, 7489
2, 7457
2, 7441
2, 7441
2, 7425
2, 7409
2, 7393
2, 7457
2, 7553
2, 7649
2, 7665
2, 7633
2, 7585
2, 7585
2, 7617
2, 7649
2, 7617
2, 7601
2, 7585
2, 7569
2, 7633
2, 7681
2, 7681
2, 7713
2, 7681
2, 7617
2, 7553
2, 7537
2, 7521
2, 7473
2, 7537
2, 7585
2, 7569
2, 7569
2, 7553
2, 7617
2, 7617
2, 7617
2, 7569
2, 7617
2, 7649
2, 7729
2, 7777
2, 7777
2, 7713
2, 7761
2, 7745
2, 7649
2, 7649
2, 7569
2, 7553
2, 7521
2, 7521
2, 7457
2, 7425
2, 7377
2, 7329
2, 7361
2, 7297
2, 7281
2, 7249
2, 7249
2, 7233
2, 7169
2, 7201
2, 7249
2, 7281
2, 7249
2, 7217
2, 7137
2, 7201
2, 7153
2, 7121
2, 7073
2, 7041
2, 7025
2, 6977
2, 6961
2, 6961
2, 6913
2, 6897
2, 6881
2, 6881
2, 6945
2, 6929
2, 6881
2, 6881
2, 6897
2, 6865
2, 6849
2, 6865
2, 6817
2, 6817
2, 6769
2, 6737
2, 6705
2, 6737
2, 6689
2, 6673
2, 6625
2, 6593
2, 6625
2, 6593
2, 6609
2, 6609
2, 6609
2, 6625
2, 6609
2, 6593
2, 6561
2, 6545
2, 6497
2, 6545
2, 6513
2, 6513
2, 6497
2, 6449
2, 6433
2, 6433
2, 6417
2, 6417
2, 6385
2, 6353
2, 6385
2, 6353
2, 6385
2, 6401
2, 6369
2, 6337
2, 6305
2, 6321
2, 6321
2, 6273
2, 6273
2, 6257
2, 6225
2, 6225
2, 6193
2, 6177
2, 6145
2, 6145
2, 6145
2, 6129
2, 6097
2, 6065
2, 6065
2, 6065
2, 6001
2, 6033
2, 5969
2, 5937
2, 5953
2, 5921
2, 5921
2, 5953
2, 5921
2, 5905
2, 5905
2, 5905
2, 5841
2, 5889
2, 5841
2, 5825
2, 5809
2, 5761
2, 5905
2, 5841
2, 5953
2, 5937
2, 5921
2, 5953
2, 5921
2, 5889
2, 5809
2, 5793
2, 5809
2, 5825
2, 5745
2, 5825
2, 5809
2, 5825
2, 5825
2, 5713
2, 5681
2, 5633
2, 5681
2, 5649
2, 5649
2, 5585
2, 5585
2, 5601
2, 5553
2, 5585
2, 5601
2, 5537
2, 5537
2, 5537
2, 5521
2, 5537
2, 5521
2, 5537
2, 5505
2, 5505
2, 5505
2, 5537
2, 5505
2, 5441
2, 5473
2, 5473
2, 5425
2, 5345
2, 5377
2, 5393
2, 5393
2, 5329
2, 5377
2, 5393
2, 5409
2, 5377
2, 5361
2, 5249
2, 5329
2, 5329
2, 5313
2, 5265
2, 5297
2, 5297
2, 5297
2, 5329
2, 5329
2, 5313
2, 5345
2, 5361
2, 5393
2, 5361
2, 5345
2, 5329
2, 5297
2, 5313
2, 5313
2, 5313
2, 5297
2, 5281
2, 5281
2, 5249
2, 5169
2, 5217
2, 5233
2, 5265
2, 5249
2, 5249
2, 5217
2, 5217
2, 5201
2, 5201
2, 5185
2, 5249
2, 5233
2, 5265
2, 5265
2, 5281
2, 5249
2, 5217
2, 5265
2, 5249
2, 5265
2, 5249
2, 5201
2, 5217
2, 5217
2, 5313
2, 5297
2, 5281
2, 5265
2, 5249
2, 5265
2, 5249
2, 5249
2, 5201
2, 5201
2, 5201
2, 5265
2, 5217
2, 5217
2, 5217
2, 5185
2, 5169
2, 5185
2, 5217
2, 5233
2, 5313
2, 5393
2, 5409
2, 5377
2, 5345
2, 5361
2, 5329
2, 5329
2, 5329
2, 5345
2, 5329
2, 5313
2, 5297
2, 5297
2, 5265
2, 5249
2, 5265
2, 5217
2, 5233
2, 5281
2, 5265
2, 5249
2, 5249
2, 5265
2, 5217
2, 5185
2, 5201
2, 5153
2, 5185
2, 5169
2, 5217
2, 5185
2, 5185
2, 5249
2, 5201
2, 5233
2, 5201
2, 5201
2, 5137
2, 5169
2, 5153
2, 5169
2, 5153
2, 5169
2, 5185
2, 5169
2, 5169
2, 5201
2, 5201
2, 5217
2, 5217
2, 5233
2, 5249
2, 5249
2, 5233
2, 5233
2, 5185
2, 5233
2, 5297
2, 5297
2, 5265
2, 5281
2, 5249
2, 5233
2, 5265
2, 5249
2, 5313
2, 5281
2, 5281
2, 5345
2, 5377
2, 5377
2, 5409
2, 5393
2, 5393
2, 5393
2, 5377
2, 5377
2, 5361
2, 5361
2, 5361
2, 5361
2, 5329
2, 5329
2, 5313
2, 5281
2, 5265
2, 5249
2, 5233
2, 5233
2, 5201
2, 5217
2, 5233
2, 5201
2, 5169
2, 5153
2, 5169
2, 5137
2, 5201
2, 5201
2, 5201
2, 5233
2, 5153
2, 5185
2, 5153
2, 5153
2, 5137
2, 5121
2, 5137
2, 5121
2, 5105
2, 5121
2, 5121
2, 5105
2, 5089
2, 5089
2, 5105
2, 5121
2, 5153
2, 5185
2, 5185
2, 5169
2, 5201
2, 5217
2, 5201
2, 5249
2, 5217
2, 5201
2, 5217
2, 5169
2, 5217
2, 5217
2, 5185
2, 5185
2, 5185
2, 5153
2, 5153
2, 5153
2, 5121
2, 5137
2, 5105
2, 5089
2, 5089
2, 5073
2, 5089
2, 5201
2, 5185
2, 5153
2, 5169
2, 5153
2, 5137
2, 5137
2, 5137
2, 5121
2, 5105
2, 5057
2, 5089
2, 5105
2, 5105
2, 5089
2, 5089
2, 5073
2, 5057
2, 5089
2, 5089
2, 5041
2, 5057
2, 5089
2, 5057
2, 5041
2, 5009
2, 5009
2, 5025
2, 5009
2, 5009
2, 5041
2, 5025
2, 5009
2, 5009
2, 4993
2, 4977
2, 4977
2, 4977
2, 4961
2, 4961
2, 4929
2, 4929
2, 4913
2, 4881
2, 4865
2, 4897
2, 4945
2, 4945
2, 4913
2, 4929
2, 4913
2, 4881
2, 4897
2, 4897
2, 4881
2, 4897
2, 4865
2, 4881
2, 4865
2, 4865
2, 4833
2, 4817
2, 4817
2, 4849
2, 4833
2, 4833
2, 4849
2, 4881
2, 4913
2, 4913
2, 4897
2, 4881
2, 4897
2, 4849
2, 4849
2, 4865
2, 4849
2, 4881
2, 4913
2, 4913
2, 4945
2, 4913
2, 4993
2, 4897
2, 4913
2, 4961
2, 4881
2, 4897
2, 4913
2, 4913
2, 4897
2, 4897
2, 4881
2, 4865
2, 4833
2, 4833
2, 4897
2, 4865
2, 4849
2, 4849
2, 4881
2, 4881
2, 4849
2, 4849
2, 4833
2, 4849
2, 4849
2, 4865
2, 4865
2, 4849
2, 4881
2, 4897
2, 4801
2, 4833
2, 4865
2, 4817
2, 4817
2, 4833
2, 4881
2, 4929
2, 4913
2, 4897
2, 4881
2, 4881
2, 4945
2, 4865
2, 4865
