1, 10850
1, 10834
1, 10818
1, 10834
1, 10866
1, 10866
1, 10866
1, 10834
1, 10834
1, 10850
1, 10834
1, 10882
1, 10866
1, 10850
1, 10866
1, 10834
1, 10818
1, 10818
1, 10834
1, 10850
1, 10834
1, 10818
1, 10818
1, 10818
1, 10802
1, 10802
1, 10802
1, 10770
1, 10770
1, 10818
1, 10818
1, 10802
1, 10802
1, 10818
1, 10818
1, 10802
1, 10786
1, 10802
1, 10818
1, 10802
1, 10818
1, 10834
1, 10818
1, 10802
1, 10802
1, 10786
1, 10802
1, 10754
1, 10786
1, 10754
1, 10754
1, 10786
1, 10786
1, 10786
1, 10754
1, 10770
1, 10786
1, 10834
1, 10866
1, 10818
1, 10882
1, 10882
1, 10882
1, 10882
1, 10850
1, 10850
1, 10850
1, 10850
1, 10850
1, 10818
1, 10818
1, 10834
1, 10834
1, 10834
1, 10834
1, 10850
1, 10834
1, 10818
1, 10818
1, 10834
1, 10850
1, 10802
1, 10802
1, 10786
1, 10786
1, 10770
1, 10754
1, 10754
1, 10786
1, 10786
1, 10770
1, 10770
1, 10786
1, 10786
1, 10770
1, 10754
1, 10754
1, 10786
1, 10802
1, 10898
1, 10898
1, 10930
1, 10994
1, 10994
1, 11058
1, 11106
1, 11122
1, 11138
1, 11218
1, 11202
1, 11218
1, 11218
1, 11186
1, 11202
1, 11186
1, 11186
1, 11186
1, 11186
1, 11346
1, 11474
1, 11490
1, 11458
1, 11506
1, 11522
1, 11538
1, 11554
1, 11554
1, 11506
1, 11506
1, 11522
1, 11570
1, 11634
1, 11618
1, 11618
1, 11730
1, 11730
1, 11762
1, 11826
1, 11794
1, 11826
1, 11858
1, 11922
1, 11922
1, 12002
1, 11986
1, 11954
1, 11970
1, 11954
1, 11938
1, 11954
1, 11986
1, 11970
1, 11970
1, 11970
1, 11986
1, 11986
1, 12082
1, 12210
1, 12210
1, 12162
1, 12146
1, 12130
1, 12130
1, 12130
1, 12130
1, 12098
1, 12082
1, 12114
1, 12146
1, 12258
1, 12226
1, 12210
1, 12194
1, 12258
1, 12226
1, 12178
1, 12162
1, 12130
1, 12130
1, 12130
1, 12114
1, 12114
1, 12098
1, 12082
1, 12050
1, 12066
1, 12018
1, 12034
1, 12018
1, 12018
1, 12002
1, 12018
1, 12002
1, 12034
1, 12002
1, 11970
1, 11954
1, 11986
1, 12066
1, 12098
1, 12114
1, 12194
1, 12355
1, 12387
1, 12403
1, 12339
1, 12339
1, 12307
1, 12258
1, 12258
1, 12210
1, 12242
1, 12291
1, 12291
1, 12274
1, 12226
1, 12242
1, 12291
1, 12258
1, 12242
1, 12242
1, 12242
1, 12339
1, 12419
1, 12387
1, 12387
1, 12435
1, 12387
1, 12387
1, 12355
1, 12307
1, 12307
1, 12274
1, 12258
1, 12323
1, 12307
1, 12323
1, 12355
1, 12307
1, 12291
1, 12274
1, 12291
1, 12323
1, 12258
1, 12258
1, 12242
1, 12291
1, 12307
1, 12258
1, 12226
1, 12307
1, 12355
1, 12339
1, 12355
1, 12499
1, 12595
1, 12563
1, 12563
1, 12547
1, 12515
1, 12643
1, 12659
1, 12611
1, 12579
1, 12579
1, 12595
1, 12739
1, 12707
1, 12659
1, 12627
1, 12691
1, 12643
1, 12643
1, 12595
1, 12595
1, 12675
1, 12771
1, 12835
1, 12819
1, 12915
1, 13171
1, 13299
1, 13315
1, 13395
1, 13523
1, 13507
1, 13507
1, 13539
1, 13491
1, 13523
1, 13539
1, 13523
1, 13539
1, 13571
1, 13763
1, 13795
1, 13795
1, 13763
1, 13699
1, 13699
1, 13683
1, 13619
1, 13587
1, 13523
1, 13491
1, 13459
1, 13427
1, 13411
1, 13379
1, 13347
1, 13283
1, 13267
1, 13299
1, 13283
1, 13315
1, 13347
1, 13331
1, 13267
1, 13267
1, 13219
1, 13219
1, 13219
1, 13171
1, 13123
1, 13187
1, 13123
1, 13091
1, 13107
1, 13075
1, 13043
1, 13011
1, 13011
1, 12963
1, 12931
1, 12899
1, 12915
1, 12883
1, 12963
1, 12915
1, 12883
1, 12867
1, 12819
1, 12771
1, 12787
1, 12835
1, 12803
1, 12835
1, 12819
1, 12851
1, 12899
1, 12867
1, 12851
1, 12803
1, 12803
1, 12787
1, 12739
1, 12723
1, 12691
1, 12691
1, 12707
1, 12707
1, 12787
1, 12803
1, 12803
1, 12771
1, 12771
1, 12723
1, 12707
1, 12691
1, 12675
1, 12707
1, 12659
1, 12643
1, 12659
1, 12627
1, 12579
1, 12515
1, 12531
1, 12627
1, 12739
1, 12755
1, 12771
1, 12819
1, 12883
1, 12883
1, 12835
1, 12835
1, 12803
1, 12803
1, 12803
1, 12867
1, 12867
1, 12835
1, 12835
1, 12803
1, 12771
1, 12723
1, 12755
1, 12707
1, 12707
1, 12819
1, 12803
1, 12771
1, 12771
1, 12707
1, 12691
1, 12643
1, 12643
1, 12611
1, 12611
1, 12627
1, 12595
1, 12563
1, 12563
1, 12627
1, 12579
1, 12579
1, 12611
1, 12595
1, 12579
1, 12547
1, 12515
1, 12499
1, 12467
1, 12467
1, 12483
1, 12467
1, 12515
1, 12627
1, 12627
1, 12611
1, 12643
1, 12627
1, 12627
1, 12675
1, 12659
1, 12643
1, 12611
1, 12659
1, 12675
1, 12771
1, 12867
1, 12803
1, 12819
1, 12787
1, 12723
1, 12707
1, 12675
1, 12643
1, 12611
1, 12595
1, 12547
1, 12579
1, 12611
1, 12659
1, 12643
1, 12627
1, 12707
1, 12707
1, 12739
1, 12739
1, 12739
1, 12819
1, 12899
1, 12883
1, 12851
1, 12851
1, 12787
1, 12755
1, 12819
1, 12787
1, 12723
1, 12691
1, 12691
1, 12643
1, 12643
1, 12643
1, 12611
1, 12579
1, 12563
1, 12627
1, 12595
1, 12611
1, 12611
1, 12611
1, 12579
1, 12595
1, 12563
1, 12547
1, 12515
1, 12483
1, 12435
1, 12403
1, 12403
1, 12371
1, 12371
1, 12371
1, 12339
1, 12355
1, 12291
1, 12291
1, 12307
1, 12307
1, 12242
1, 12258
1, 12258
1, 12226
1, 12210
1, 12162
1, 12146
1, 12098
1, 12098
1, 12114
1, 12066
1, 12114
1, 12082
1, 12066
1, 12114
1, 12066
1, 12066
1, 12066
1, 12066
1, 12050
1, 12034
1, 12050
1, 12066
1, 12034
1, 12018
1, 12066
1, 12066
1, 12050
1, 12034
1, 12034
1, 12082
1, 12098
1, 12066
1, 12066
1, 12050
1, 12050
1, 12034
1, 12066
1, 12050
1, 12082
1, 12130
1, 12114
1, 12082
1, 12066
1, 12066
1, 12050
1, 12034
1, 12002
1, 11986
1, 11954
1, 11986
1, 11986
1, 11986
1, 11970
1, 11922
1, 11906
1, 11922
1, 11906
1, 11922
1, 11874
1, 11874
1, 11842
1, 11842
1, 11890
1, 11890
1, 11906
1, 11874
1, 11874
1, 11906
1, 11906
1, 11906
1, 11874
1, 11874
1, 11890
1, 11874
1, 11890
1, 11874
1, 11874
1, 11858
1, 11826
1, 11842
1, 11826
1, 11826
1, 11794
1, 11810
1, 11794
1, 11794
1, 11810
1, 11794
1, 11778
1, 11762
1, 11762
1, 11746
1, 11746
1, 11666
1, 11746
1, 11698
1, 11762
1, 11746
1, 11730
1, 11714
1, 11746
1, 11746
1, 11762
1, 11730
1, 11730
1, 11698
1, 11682
1, 11698
1, 11682
1, 11650
1, 11634
1, 11682
1, 11666
1, 11650
1, 11634
1, 11618
1, 11602
1, 11570
1, 11602
1, 11650
1, 11650
1, 11650
1, 11618
1, 11602
1, 11618
1, 11602
1, 11618
1, 11586
1, 11602
1, 11570
1, 11554
1, 11554
1, 11522
1, 11538
1, 11538
1, 11538
1, 11522
1, 11538
1, 11506
1, 11474
1, 11506
1, 11490
1, 11458
1, 11474
1, 11474
1, 11506
1, 11506
1, 11490
1, 11458
1, 11490
1, 11490
1, 11474
1, 11458
1, 11442
1, 11442
1, 11490
1, 11538
1, 11522
1, 11506
1, 11522
1, 11506
1, 11522
1, 11522
1, 11538
1, 11522
1, 11522
1, 11522
1, 11538
1, 11506
1, 11506
1, 11490
1, 11490
1, 11490
1, 11442
1, 11426
1, 11410
1, 11410
1, 11426
1, 11410
1, 11394
1, 11378
1, 11394
1, 11378
1, 11394
1, 11378
1, 11378
1, 11346
1, 11378
1, 11410
1, 11378
1, 11362
1, 11378
1, 11394
1, 11346
1, 11378
1, 11362
1, 11362
1, 11394
1, 11362
1, 11346
1, 11330
1, 11314
1, 11346
1, 11362
1, 11346
1, 11346
1, 11362
1, 11330
1, 11314
1, 11362
1, 11394
1, 11394
1, 11362
1, 11346
1, 11346
1, 11314
1, 11314
1, 11282
1, 11330
1, 11394
1, 11346
1, 11362
1, 11330
1, 11346
1, 11346
1, 11330
1, 11346
1, 11314
1, 11298
1, 11298
1, 11362
1, 11282
1, 11282
1, 11298
1, 11282
1, 11266
1, 11346
1, 11330
1, 11346
1, 11314
1, 11298
1, 11266
1, 11282
1, 11266
1, 11266
1, 11282
1, 11266
1, 11282
1, 11266
1, 11298
1, 11282
1, 11282
1, 11298
1, 11282
1, 11266
1, 11298
1, 11266
1, 11314
1, 11330
1, 11330
1, 11362
1, 11378
1, 11346
1, 11314
1, 11314
1, 11298
1, 11346
1, 11330
1, 11362
1, 11346
1, 11330
1, 11298
1, 11330
1, 11314
1, 11298
1, 11282
1, 11282
1, 11282
1, 11330
1, 11362
1, 11378
1, 11378
1, 11346
1, 11346
1, 11362
1, 11410
1, 11378
1, 11410
1, 11426
1, 11442
1, 11394
1, 11394
1, 11394
1, 11378
1, 11394
1, 11378
1, 11346
1, 11346
1, 11330
1, 11362
1, 11394
1, 11362
1, 11410
1, 11378
1, 11362
1, 11346
1, 11346
1, 11394
1, 11442
1, 11378
1, 11394
1, 11378
1, 11362
1, 11394
1, 11378
1, 11346
1, 11330
1, 11314
1, 11506
1, 11362
1, 11378
1, 11410
1, 11490
1, 11554
1, 11522
1, 11522
1, 11554
1, 11490
1, 11474
1, 11474
1, 11474
1, 11458
1, 11458
1, 11490
1, 11458
1, 11458
1, 11426
1, 11410
1, 11426
1, 11410
1, 11410
1, 11442
1, 11426
1, 11442
1, 11442
1, 11474
1, 11506
1, 11554
1, 11522
1, 11554
1, 11538
1, 11522
1, 11506
1, 11506
1, 11522
1, 11506
1, 11490
1, 11506
1, 11538
1, 11602
1, 11650
1, 11634
1, 11730
1, 11922
1, 12018
1, 12066
1, 12210
1, 12355
1, 12387
1, 12419
1, 12387
1, 12355
1, 12467
1, 12563
1, 12643
1, 12627
1, 12595
1, 12643
1, 12835
1, 13027
1, 13139
1, 13171
1, 13171
1, 13347
1, 13379
1, 13363
1, 13443
1, 13459
1, 13635
1, 13779
1, 13843
1, 13939
1, 13907
1, 14051
1, 14323
1, 14355
1, 14371
1, 14499
1, 14499
1, 14547
1, 14643
1, 14675
1, 14707
1, 14931
1, 14995
1, 14915
1, 14867
1, 14963
1, 15091
1, 15059
1, 15011
1, 15011
1, 15011
1, 14947
1, 14883
1, 14851
1, 14787
1, 14915
1, 14899
1, 14979
1, 15107
1, 15091
1, 15107
1, 15059
1, 15027
1, 14947
1, 15027
1, 15043
1, 15043
1, 15235
1, 15475
1, 15507
1, 15427
1, 15443
1, 15523
1, 15523
1, 15523
1, 15603
1, 15619
1, 15635
1, 15747
1, 15747
1, 15667
1, 15619
1, 15587
1, 15603
1, 15571
1, 15523
1, 15587
1, 15603
1, 15539
1, 15491
1, 15555
1, 15635
1, 15843
1, 15859
1, 15811
1, 15747
1, 15859
1, 15859
1, 15827
1, 15747
1, 15763
1, 15731
1, 15667
1, 15635
1, 15587
1, 15603
1, 15715
1, 15763
1, 15683
1, 15667
1, 15827
1, 15891
1, 15795
1, 15731
1, 15779
1, 15891
1, 15875
1, 15827
1, 15875
1, 15811
1, 15731
1, 15699
1, 15667
1, 15587
1, 15523
1, 15443
1, 15475
1, 15603
1, 15667
1, 15603
1, 15555
1, 15539
1, 15603
1, 15747
1, 15715
1, 15699
1, 15635
1, 15683
1, 15667
1, 15795
1, 15811
1, 15763
1, 15667
1, 15651
1, 15683
1, 15811
1, 15683
1, 15699
1, 15635
1, 15651
1, 15651
1, 15587
1, 15523
1, 15523
1, 15475
1, 15571
1, 15539
1, 15539
1, 15475
1, 15411
1, 15523
1, 15715
1, 15683
1, 15699
1, 15635
1, 15587
1, 15507
1, 15459
1, 15411
1, 15443
1, 15395
1, 15315
1, 15267
1, 15267
1, 15219
1, 15155
1, 15075
1, 15027
1, 14979
1, 15187
1, 15203
1, 15187
1, 15123
1, 15107
1, 15155
1, 15139
1, 15091
1, 15059
1, 14979
1, 14931
1, 14899
1, 14819
1, 14755
1, 14707
1, 14659
1, 14627
1, 14659
1, 14867
1, 15059
1, 15091
1, 15139
1, 15283
1, 15219
1, 15171
1, 15075
1, 15043
1, 14979
1, 14931
1, 14899
1, 14851
1, 14803
1, 14963
1, 15059
1, 15107
1, 15187
1, 15219
1, 15187
1, 15171
1, 15155
1, 15107
1, 15171
1, 15155
1, 15139
1, 15219
1, 15187
1, 15155
1, 15267
1, 15411
1, 15427
1, 15379
1, 15315
1, 15283
1, 15219
1, 15187
1, 15107
1, 15043
1, 15027
1, 15027
1, 15011
1, 14947
1, 14915
1, 14867
1, 14867
1, 14931
1, 14979
1, 14995
1, 14947
1, 14947
1, 14899
1, 14995
1, 14979
1, 14995
1, 14979
1, 14947
1, 14899
1, 14867
1, 14867
1, 14867
1, 14803
1, 14771
1, 14723
1, 14643
1, 14627
1, 14547
1, 14515
1, 14451
1, 14483
1, 14451
1, 14419
1, 14435
1, 14403
1, 14403
1, 14339
1, 14291
1, 14259
1, 14211
1, 14131
1, 14211
1, 14179
1, 14131
1, 14099
1, 14035
1, 13987
1, 13955
1, 13987
1, 14003
1, 13955
1, 13939
1, 13891
1, 13875
1, 13827
1, 13811
1, 13779
1, 13843
1, 13827
1, 13779
1, 13731
1, 13683
1, 13667
1, 13651
1, 13667
1, 13843
1, 13811
1, 13795
1, 13795
1, 13827
1, 13795
1, 13827
1, 13811
1, 13763
1, 13731
1, 13699
1, 13651
1, 13635
1, 13619
1, 13571
1, 13523
1, 13507
1, 13491
1, 13491
1, 13459
1, 13427
1, 13379
1, 13363
1, 13347
1, 13379
1, 13379
1, 13331
1, 13299
1, 13299
1, 13267
1, 13251
1, 13315
1, 13331
1, 13299
1, 13283
1, 13235
1, 13219
1, 13187
1, 13171
1, 13139
1, 13171
1, 13171
1, 13123
1, 13091
1, 13091
1, 13059
1, 12995
1, 12995
1, 12995
1, 12947
1, 12931
1, 12899
1, 12867
1, 12915
1, 12947
1, 12931
1, 12915
1, 12883
1, 12883
1, 12931
1, 12867
1, 12883
1, 12931
1, 12915
1, 12915
1, 12867
1, 12819
1, 12787
1, 12771
1, 12739
1, 12707
1, 12675
1, 12675
1, 12659
1, 12627
1, 12563
1, 12563
1, 12547
1, 12547
1, 12515
1, 12483
1, 12467
1, 12451
1, 12419
1, 12419
1, 12451
1, 12435
1, 12403
1, 12387
1, 12403
1, 12355
1, 12291
1, 12323
1, 12339
1, 12307
1, 12274
1, 12274
1, 12242
1, 12242
1, 12210
1, 12242
1, 12242
1, 12226
1, 12194
1, 12178
1, 12162
1, 12162
1, 12146
1, 12114
1, 12114
1, 12130
1, 12098
1, 12098
1, 12082
1, 12082
1, 12050
1, 12050
1, 12050
1, 12098
1, 12098
1, 12082
1, 12050
1, 12050
1, 12034
1, 12018
1, 12018
1, 11970
1, 11986
1, 11970
1, 11986
1, 11954
1, 11938
1, 11906
1, 11922
1, 11954
1, 11954
1, 11954
1, 11922
1, 11954
1, 11954
1, 11938
1, 11938
1, 11906
1, 11906
1, 11874
1, 11858
1, 11890
1, 11874
1, 11874
1, 11858
1, 11874
1, 11826
1, 11810
1, 11826
1, 11826
1, 11826
1, 11826
1, 11810
1, 11794
1, 11794
1, 11762
1, 11746
1, 11810
1, 11874
1, 11890
1, 11858
1, 11826
1, 11826
1, 11762
1, 11826
1, 11778
1, 11746
1, 11714
1, 11714
1, 11730
1, 11682
1, 11682
1, 11682
1, 11666
1, 11714
1, 11730
1, 11730
1, 11730
1, 11698
1, 11698
1, 11666
1, 11666
1, 11682
1, 11650
1, 11666
1, 11634
1, 11650
1, 11666
1, 11698
1, 11682
1, 11650
1, 11650
1, 11634
1, 11602
1, 11618
1, 11602
1, 11618
1, 11618
1, 11586
1, 11602
1, 11634
1, 11650
1, 11666
1, 11650
1, 11682
1, 11666
1, 11650
1, 11650
1, 11650
1, 11618
1, 11618
1, 11634
1, 11666
1, 11682
1, 11698
1, 11682
1, 11650
1, 11666
1, 11634
1, 11650
1, 11650
1, 11634
1, 11634
1, 11618
1, 11618
1, 11618
1, 11602
1, 11602
1, 11586
1, 11570
1, 11586
1, 11602
1, 11570
1, 11586
1, 11570
1, 11602
1, 11618
1, 11618
1, 11618
1, 11602
1, 11602
1, 11602
1, 11586
1, 11602
1, 11586
1, 11586
1, 11602
1, 11570
1, 11554
1, 11554
1, 11554
1, 11538
1, 11506
1, 11522
1, 11506
1, 11538
1, 11570
1, 11586
1, 11570
1, 11570
1, 11554
1, 11554
1, 11554
1, 11570
1, 11586
1, 11586
1, 11554
1, 11538
1, 11554
1, 11554
1, 11554
1, 11522
1, 11522
1, 11538
1, 11538
1, 11586
1, 11554
1, 11490
1, 11522
1, 11538
1, 11490
1, 11474
1, 11490
1, 11490
1, 11474
1, 11474
1, 11458
1, 11442
1, 11426
1, 11426
1, 11442
1, 11458
1, 11474
1, 11442
1, 11490
1, 11490
1, 11458
1, 11458
1, 11426
1, 11442
1, 11426
1, 11458
1, 11458
1, 11442
1, 11410
1, 11426
1, 11394
1, 11394
1, 11426
1, 11490
1, 11490
1, 11490
1, 11474
1, 11522
1, 11522
1, 11522
1, 11586
1, 11554
1, 11586
1, 11538
1, 11554
1, 11522
1, 11570
1, 11586
1, 11570
1, 11586
1, 11554
1, 11538
1, 11490
1, 11490
1, 11506
1, 11522
1, 11522
1, 11490
1, 11490
1, 11458
1, 11442
1, 11458
1, 11442
1, 11426
1, 11410
1, 11410
1, 11458
1, 11442
1, 11426
1, 11458
1, 11474
1, 11474
1, 11522
1, 11570
1, 11538
1, 11570
1, 11650
1, 11634
1, 11634
1, 11634
1, 11586
1, 11586
1, 11586
1, 11570
1, 11554
1, 11602
1, 11650
1, 11650
1, 11650
1, 11618
1, 11634
1, 11634
1, 11618
1, 11682
1, 11682
1, 11682
1, 11682
1, 11650
1, 11650
1, 11650
1, 11618
1, 11666
1, 11650
1, 11666
1, 11682
1, 11698
1, 11682
1, 11666
1, 11666
1, 11682
1, 11730
1, 11810
1, 11778
1, 11778
1, 11778
1, 11810
1, 11794
1, 11778
1, 11746
1, 11794
1, 11842
1, 11874
1, 11858
1, 11858
1, 11842
1, 11874
1, 11874
1, 11858
1, 11874
1, 11890
1, 11938
1, 12082
1, 12339
1, 12371
1, 12355
1, 12387
1, 12483
1, 12675
1, 12739
1, 12739
1, 12755
1, 12851
1, 13091
1, 13187
1, 13203
1, 13315
1, 13395
1, 13427
1, 13363
1, 13347
1, 13315
1, 13299
1, 13427
1, 13491
1, 13491
1, 13459
1, 13411
1, 13411
1, 13459
1, 13683
1, 13683
1, 13683
1, 13715
1, 13811
1, 13747
1, 13747
1, 13731
1, 13811
1, 13859
1, 13843
1, 13795
1, 13811
1, 13923
1, 13907
1, 13907
1, 13859
1, 13811
1, 13939
1, 13971
1, 13955
1, 13955
1, 13923
1, 13875
1, 13827
1, 13795
1, 13747
1, 13763
1, 13763
1, 13747
1, 13843
1, 14035
1, 14067
1, 14083
1, 14067
1, 14083
1, 14035
1, 14003
1, 13987
1, 14035
1, 14179
1, 14179
1, 14163
1, 14131
1, 14291
1, 14515
1, 14515
1, 14483
1, 14595
1, 14771
1, 14771
1, 15027
1, 15347
1, 15587
1, 15555
1, 15523
1, 15523
1, 15491
1, 15475
1, 15555
1, 15651
1, 15795
1, 15763
1, 15699
1, 15683
1, 15763
1, 15715
1, 15635
1, 15619
1, 15523
1, 15523
1, 15459
1, 15475
1, 15459
1, 15555
1, 15587
1, 15651
1, 15859
1, 15907
1, 15939
1, 15955
1, 16131
1, 16035
1, 16115
1, 16035
1, 16083
1, 16323
1, 16468
1, 16436
1, 16371
1, 16404
1, 16355
1, 16275
1, 16323
1, 16420
1, 16339
1, 16323
1, 16371
1, 16452
1, 16371
1, 16307
1, 16323
1, 16259
1, 16211
1, 16195
1, 16275
1, 16195
1, 16147
1, 16051
1, 16051
1, 16211
1, 16227
1, 16147
1, 16163
1, 16243
1, 16179
1, 16131
1, 16131
1, 16147
1, 16099
1, 16019
1, 16019
1, 15955
1, 15971
1, 15891
1, 15907
1, 15907
1, 15875
1, 15843
1, 15875
1, 15907
1, 15875
1, 15779
1, 15715
1, 15731
1, 15747
1, 15891
1, 15875
1, 15955
1, 15907
1, 15843
1, 15763
1, 15763
1, 15811
1, 15859
1, 15811
1, 16003
1, 16083
1, 16035
1, 16003
1, 15987
1, 16003
1, 15955
1, 15955
1, 16003
1, 15987
1, 15939
1, 15971
1, 15971
1, 16067
1, 16051
1, 16003
1, 16083
1, 16195
1, 16131
1, 16051
1, 16003
1, 15955
1, 15939
1, 15859
1, 15843
1, 15747
1, 15699
1, 15699
1, 15603
1, 15523
1, 15523
1, 15459
1, 15395
1, 15331
1, 15299
1, 15363
1, 15363
1, 15347
1, 15283
1, 15235
1, 15251
1, 15155
1, 15155
1, 15171
1, 15123
1, 15251
1, 15219
1, 15139
1, 15139
1, 15219
1, 15187
1, 15267
1, 15219
1, 15187
1, 15203
1, 15171
1, 15107
1, 15075
1, 15011
1, 14947
1, 14931
1, 14899
1, 15011
1, 15187
1, 15139
1, 15139
1, 15139
1, 15331
1, 15555
1, 15571
1, 15571
1, 15555
1, 15523
1, 15603
1, 15651
1, 15619
1, 15587
1, 15523
1, 15459
1, 15395
1, 15363
1, 15299
1, 15251
1, 15171
1, 15123
1, 15203
1, 15283
1, 15251
1, 15331
1, 15299
1, 15283
1, 15251
1, 15155
1, 15123
1, 15043
1, 14995
1, 14947
1, 15011
1, 14995
1, 14947
1, 14915
1, 14899
1, 15027
1, 14995
1, 14963
1, 14915
1, 14851
1, 14835
1, 14771
1, 14723
1, 14707
1, 14675
1, 14627
1, 14595
1, 14547
1, 14467
1, 14387
1, 14371
1, 14387
1, 14435
1, 14419
1, 14403
1, 14339
1, 14339
1, 14307
1, 14227
1, 14211
1, 14163
1, 14067
1, 14035
1, 14019
1, 13987
1, 13939
1, 13923
1, 13891
1, 13827
1, 13811
1, 13795
1, 13843
1, 13795
1, 13843
1, 13907
1, 13907
1, 13875
1, 13827
1, 13827
1, 13779
1, 13795
1, 13795
1, 13779
1, 13891
1, 13907
1, 13891
1, 13843
1, 13811
1, 13891
1, 13875
1, 13907
1, 13875
1, 13843
1, 13811
1, 13891
1, 13859
1, 13971
1, 14003
1, 13971
1, 13939
1, 13875
1, 13843
1, 13811
1, 13763
1, 13715
1, 13683
1, 13635
1, 13683
1, 13683
1, 13635
1, 13587
1, 13539
1, 13555
1, 13539
1, 13491
1, 13443
1, 13427
1, 13379
1, 13347
1, 13363
1, 13315
1, 13283
1, 13251
1, 13203
1, 13171
1, 13155
1, 13123
1, 13091
1, 13059
1, 13043
1, 13059
1, 13075
1, 13011
1, 12995
1, 13011
1, 13011
1, 12979
1, 12963
1, 12979
1, 12963
1, 12963
1, 12963
1, 12915
1, 12883
1, 12867
1, 12803
1, 12787
1, 12739
1, 12755
1, 12723
1, 12675
1, 12659
1, 12707
1, 12707
1, 12691
1, 12643
1, 12659
1, 12611
1, 12627
1, 12579
1, 12531
1, 12515
1, 12515
1, 12499
1, 12483
1, 12451
1, 12419
1, 12467
1, 12419
1, 12403
1, 12355
1, 12323
1, 12307
1, 12291
1, 12291
1, 12258
1, 12242
1, 12258
1, 12258
1, 12242
1, 12258
1, 12210
1, 12194
1, 12210
1, 12226
1, 12242
1, 12178
1, 12178
1, 12146
1, 12146
1, 12130
1, 12114
1, 12162
1, 12162
1, 12194
1, 12178
1, 12146
1, 12130
1, 12098
1, 12098
1, 12082
1, 12082
1, 12066
1, 12082
1, 12066
1, 12034
1, 12018
1, 12018
1, 12002
1, 11986
1, 11970
1, 11954
1, 11922
1, 11922
1, 11938
1, 11922
1, 11922
1, 11890
1, 11890
1, 11874
1, 11906
1, 11922
1, 11922
1, 11970
1, 11922
1, 11938
1, 11954
1, 11954
1, 11922
1, 11922
1, 11890
1, 11938
1, 11906
1, 11874
1, 11874
1, 11842
1, 11842
1, 11826
1, 11858
1, 11826
1, 11810
1, 11762
1, 11762
1, 11746
1, 11730
1, 11746
1, 11762
1, 11746
1, 11730
1, 11730
1, 11698
1, 11698
1, 11682
1, 11650
1, 11650
1, 11698
1, 11682
1, 11666
1, 11650
1, 11634
1, 11634
1, 11634
1, 11634
1, 11634
1, 11682
1, 11634
1, 11618
1, 11618
1, 11602
1, 11570
1, 11554
1, 11570
1, 11586
1, 11586
1, 11602
1, 11570
1, 11570
1, 11538
1, 11538
1, 11554
1, 11586
1, 11554
1, 11554
1, 11538
1, 11522
1, 11522
1, 11490
1, 11506
1, 11506
1, 11522
1, 11522
1, 11506
1, 11506
1, 11490
1, 11506
1, 11474
1, 11490
1, 11474
1, 11474
1, 11458
1, 11458
1, 11474
1, 11458
1, 11458
1, 11426
1, 11442
1, 11474
1, 11458
1, 11506
1, 11538
1, 11538
1, 11474
1, 11490
1, 11458
1, 11458
1, 11442
1, 11426
1, 11426
1, 11442
1, 11426
1, 11458
1, 11474
1, 11490
1, 11490
1, 11410
1, 11458
1, 11458
1, 11442
1, 11426
1, 11474
1, 11442
1, 11442
1, 11426
1, 11442
1, 11410
1, 11394
1, 11442
1, 11490
1, 11538
1, 11490
1, 11474
1, 11474
1, 11442
1, 11442
1, 11426
1, 11394
1, 11442
1, 11474
1, 11442
1, 11442
1, 11442
1, 11458
1, 11426
1, 11442
1, 11426
1, 11426
1, 11410
1, 11426
1, 11410
1, 11394
1, 11394
1, 11378
1, 11362
1, 11410
1, 11442
1, 11426
1, 11410
1, 11410
1, 11474
1, 11474
1, 11506
1, 11474
1, 11458
1, 11442
1, 11490
1, 11522
1, 11506
1, 11506
1, 11522
1, 11490
1, 11474
1, 11474
1, 11474
1, 11442
1, 11442
1, 11474
1, 11506
1, 11474
1, 11474
1, 11474
1, 11474
1, 11490
1, 11490
1, 11474
1, 11522
1, 11522
1, 11522
1, 11522
1, 11506
1, 11522
1, 11506
1, 11538
1, 11570
1, 11570
1, 11538
1, 11602
1, 11650
1, 11650
1, 11618
1, 11602
1, 11570
1, 11618
1, 11586
1, 11570
1, 11618
1, 11650
1, 11650
1, 11618
1, 11714
1, 11682
1, 11698
1, 11698
1, 11682
1, 11682
1, 11698
1, 11714
1, 11746
1, 11778
1, 11874
1, 11858
1, 11842
1, 11922
1, 11970
1, 11938
1, 11938
1, 11906
1, 11922
1, 11906
1, 11890
1, 11906
1, 11890
1, 11922
1, 11890
1, 11890
1, 11874
1, 11874
1, 11874
1, 11938
1, 12002
1, 12050
1, 12066
1, 12114
1, 12242
1, 12242
1, 12258
1, 12258
1, 12339
1, 12339
1, 12307
1, 12291
1, 12274
1, 12307
1, 12291
1, 12291
1, 12307
1, 12323
1, 12323
1, 12291
1, 12242
1, 12242
1, 12274
1, 12307
1, 12403
1, 12483
1, 12691
1, 12643
1, 12643
1, 12611
1, 12659
1, 12643
1, 12627
1, 12611
1, 12643
1, 12579
1, 12643
1, 12803
1, 12835
1, 12787
1, 12835
1, 12995
1, 13155
1, 13155
1, 13123
1, 13107
1, 13107
1, 13059
1, 13027
1, 13011
1, 13091
1, 13347
1, 13811
1, 14067
1, 14147
1, 14419
1, 14579
1, 14691
1, 14707
1, 14739
1, 14691
1, 14643
1, 14707
1, 14675
1, 14771
1, 14915
1, 15059
1, 15091
1, 15107
1, 15251
1, 15523
1, 15715
1, 15683
1, 15731
1, 15875
1, 16003
1, 16003
1, 15987
1, 15955
1, 16019
1, 15955
1, 15891
1, 15907
1, 16067
1, 16131
1, 16099
1, 16083
1, 16019
1, 16099
1, 16307
1, 16388
1, 16388
1, 16339
1, 16307
1, 16548
1, 16708
1, 16692
1, 16628
1, 16564
1, 16468
1, 16452
1, 16388
1, 16323
1, 16259
1, 16195
1, 16147
1, 16083
1, 16035
1, 16003
1, 15955
1, 15891
1, 15891
1, 15763
1, 15843
1, 15923
1, 15875
1, 15827
1, 15779
1, 15811
1, 15939
1, 15875
1, 15843
1, 15827
1, 15907
1, 15827
1, 15811
1, 15795
1, 15699
1, 15699
1, 15683
1, 15651
1, 15619
1, 15747
1, 15651
1, 15763
1, 15955
1, 16179
1, 16163
1, 16131
1, 16179
1, 16115
1, 16067
1, 15987
1, 15939
1, 15859
1, 15811
1, 15859
1, 15891
1, 15923
1, 15875
1, 15891
1, 15859
1, 15875
1, 15827
1, 15779
1, 15827
1, 15763
1, 15843
1, 15843
1, 15763
1, 15683
1, 15747
1, 15779
1, 15843
1, 15923
1, 15827
1, 15971
1, 15971
1, 15907
1, 15923
1, 15923
1, 15923
1, 15827
1, 15795
1, 15731
1, 15715
1, 15683
1, 15715
1, 15731
1, 15827
1, 15923
1, 15891
1, 15859
1, 16003
1, 16259
1, 16468
1, 16468
1, 16436
1, 16468
1, 16676
1, 16916
1, 16836
1, 16772
1, 16676
1, 16676
1, 16580
1, 16516
1, 16484
1, 16436
1, 16468
1, 16420
1, 16323
1, 16275
1, 16275
1, 16211
1, 16179
1, 16131
1, 16099
1, 16099
1, 16179
1, 16115
1, 16067
1, 16051
1, 16003
1, 16003
1, 15987
1, 15971
1, 15923
1, 15875
1, 15795
1, 15731
1, 15651
1, 15635
1, 15603
1, 15507
1, 15507
1, 15491
1, 15523
1, 15555
1, 15795
1, 16067
1, 16035
1, 16067
1, 16099
1, 16067
1, 15971
1, 15891
1, 15795
1, 15811
1, 15875
1, 15827
1, 15955
1, 15971
1, 15907
1, 15827
1, 15779
1, 15811
1, 15811
1, 15811
1, 15779
1, 15795
1, 15795
1, 15699
1, 15715
1, 15795
1, 15811
1, 15747
1, 15747
1, 15699
1, 15619
1, 15587
1, 15523
1, 15475
1, 15523
1, 15507
1, 15555
1, 15667
1, 15779
1, 15747
1, 15875
1, 15875
1, 15843
1, 15763
1, 15747
1, 15843
1, 15795
1, 15763
1, 15683
1, 15619
1, 15555
1, 15475
1, 15459
1, 15443
1, 15379
1, 15347
1, 15379
1, 15427
1, 15427
1, 15379
1, 15619
1, 15747
1, 15715
1, 15683
1, 15715
1, 15635
1, 15555
1, 15523
1, 15443
1, 15411
1, 15395
1, 15459
1, 15427
1, 15363
1, 15347
1, 15331
1, 15251
1, 15219
1, 15187
1, 15139
1, 15171
1, 15091
1, 15059
1, 14995
1, 14979
1, 14899
1, 14899
1, 14851
1, 14787
1, 14739
1, 14659
1, 14611
1, 14579
1, 14547
1, 14515
1, 14467
1, 14387
1, 14371
1, 14355
1, 14339
1, 14323
1, 14307
1, 14275
1, 14275
1, 14259
1, 14259
1, 14211
1, 14211
1, 14163
1, 14131
1, 14115
1, 14131
1, 14131
1, 14051
1, 14067
1, 14067
1, 14035
1, 14019
1, 14019
1, 13971
1, 14003
1, 14003
1, 13923
1, 13939
1, 13923
1, 13923
1, 13923
1, 13891
1, 13843
1, 13907
1, 13859
1, 13843
1, 13811
1, 13763
1, 13699
1, 13699
1, 13651
1, 13651
1, 13571
1, 13523
1, 13507
1, 13475
1, 13491
1, 13427
1, 13395
1, 13363
1, 13315
1, 13299
1, 13363
1, 13299
1, 13283
1, 13251
1, 13171
1, 13155
1, 13123
1, 13059
1, 13059
1, 13043
1, 13059
1, 13091
1, 13075
1, 13059
1, 13043
1, 13027
1, 12979
1, 12947
1, 12931
1, 12899
1, 12851
1, 12835
1, 12883
1, 12915
1, 12899
1, 12915
1, 12883
1, 12899
1, 12883
1, 12915
1, 12835
1, 12803
1, 12867
1, 12803
1, 12771
1, 12755
1, 12723
1, 12675
1, 12659
1, 12627
1, 12627
1, 12579
1, 12563
1, 12595
1, 12595
1, 12595
1, 12563
1, 12595
1, 12547
1, 12547
1, 12499
1, 12531
1, 12547
1, 12547
1, 12515
1, 12483
1, 12515
1, 12499
1, 12483
1, 12451
1, 12451
1, 12435
1, 12403
1, 12403
1, 12371
1, 12387
1, 12339
1, 12339
1, 12339
1, 12307
1, 12291
1, 12323
1, 12403
1, 12371
1, 12371
1, 12323
1, 12339
1, 12307
1, 12291
1, 12258
1, 12226
1, 12194
1, 12210
1, 12210
1, 12194
1, 12178
1, 12162
1, 12130
1, 12114
1, 12146
1, 12098
1, 12082
1, 12082
1, 12098
1, 12050
1, 12034
1, 12018
1, 11986
1, 12002
1, 12018
1, 12034
1, 11986
1, 11986
1, 12018
1, 12034
1, 12002
1, 11986
1, 11970
1, 11970
1, 11986
1, 11970
1, 11970
1, 11922
1, 11922
1, 11906
1, 11906
1, 11906
1, 11858
1, 11842
1, 11858
1, 11906
1, 11954
1, 11922
1, 11906
1, 11890
1, 11874
1, 11906
1, 11922
1, 11874
1, 11874
1, 11858
1, 11842
1, 11842
1, 11842
1, 11826
1, 11810
1, 11810
1, 11794
1, 11778
1, 11842
1, 11842
1, 11826
1, 11810
1, 11778
1, 11778
1, 11762
1, 11778
1, 11810
1, 11810
1, 11794
1, 11762
1, 11730
1, 11746
1, 11746
1, 11810
1, 11794
1, 11794
1, 11778
1, 11746
1, 11746
1, 11762
1, 11730
1, 11714
1, 11714
1, 11698
1, 11698
1, 11698
1, 11666
1, 11682
1, 11650
1, 11618
1, 11634
1, 11618
1, 11618
1, 11618
1, 11602
1, 11650
1, 11618
1, 11602
1, 11586
1, 11618
1, 11586
1, 11586
1, 11570
1, 11586
1, 11570
1, 11522
1, 11538
1, 11554
1, 11554
1, 11538
1, 11506
1, 11506
1, 11506
1, 11506
1, 11522
1, 11490
1, 11474
1, 11506
1, 11506
1, 11538
1, 11554
1, 11490
1, 11522
1, 11506
1, 11458
1, 11490
1, 11474
1, 11474
1, 11442
1, 11458
1, 11442
1, 11442
1, 11426
1, 11426
1, 11410
1, 11426
1, 11426
1, 11426
1, 11442
1, 11426
1, 11410
1, 11394
1, 11394
1, 11426
1, 11442
1, 11410
1, 11410
1, 11426
1, 11458
1, 11474
1, 11458
1, 11474
1, 11490
1, 11474
1, 11490
1, 11490
1, 11490
1, 11490
1, 11490
1, 11506
1, 11458
1, 11474
1, 11458
1, 11474
1, 11442
1, 11458
1, 11474
1, 11442
1, 11458
1, 11426
1, 11442
1, 11458
1, 11458
1, 11458
1, 11474
1, 11522
1, 11522
1, 11458
1, 11506
1, 11506
1, 11474
1, 11490
1, 11458
1, 11474
1, 11474
1, 11474
1, 11458
1, 11490
1, 11490
1, 11618
1, 11618
1, 11602
1, 11602
1, 11618
1, 11586
1, 11634
1, 11634
1, 11634
1, 11634
1, 11682
1, 11778
1, 11778
1, 11746
1, 11730
1, 11762
1, 11746
1, 11698
1, 11698
1, 11698
1, 11698
1, 11682
1, 11698
1, 11746
1, 11698
1, 11714
1, 11746
1, 11746
1, 11730
1, 11762
1, 11842
1, 11826
1, 11922
1, 11922
1, 12002
1, 12034
1, 12050
1, 12018
1, 12002
1, 11986
1, 12002
1, 11970
1, 12002
1, 12002
1, 12002
1, 12002
1, 12050
1, 12002
1, 12034
1, 12098
1, 12162
1, 12162
1, 12146
1, 12146
1, 12291
1, 12451
1, 12467
1, 12595
1, 12659
1, 12691
1, 12723
1, 12755
1, 12723
1, 12787
1, 12755
1, 12739
1, 12675
1, 12707
1, 12675
1, 12627
1, 12595
1, 12595
1, 12547
1, 12611
1, 12851
1, 12979
1, 12947
1, 13075
1, 13155
1, 13155
1, 13107
1, 13091
1, 13091
1, 13107
1, 13107
1, 13091
1, 13139
1, 13219
1, 13187
1, 13251
1, 13235
1, 13267
1, 13363
1, 13363
1, 13315
1, 13411
1, 13683
1, 13795
1, 13779
1, 13763
1, 13779
1, 13747
1, 13811
1, 14083
1, 14115
1, 14067
1, 14147
1, 14211
1, 14435
1, 14499
1, 14435
1, 14403
1, 14483
1, 14467
1, 14515
1, 14515
1, 14531
1, 14707
1, 14915
1, 14899
1, 15155
1, 15539
1, 15843
1, 15859
1, 16147
1, 16788
1, 17108
1, 17204
1, 17140
1, 17284
1, 17540
1, 17924
1, 18020
1, 18020
1, 18484
1, 18756
1, 18820
1, 18772
1, 18788
1, 18868
1, 18788
1, 18756
1, 18756
1, 18628
1, 18532
1, 18628
1, 18660
1, 18724
1, 18692
1, 18740
1, 18900
1, 18932
1, 18900
1, 18868
1, 18964
1, 18932
1, 18964
1, 18916
1, 18820
1, 18868
1, 18868
1, 18756
1, 18836
1, 18772
1, 18660
1, 18580
1, 18564
1, 18516
1, 18468
1, 18404
1, 18516
1, 18692
1, 18644
1, 18532
1, 18644
1, 19012
1, 19140
1, 19028
1, 18932
1, 18836
1, 18820
1, 18884
1, 18948
1, 18900
1, 19028
1, 19028
1, 18916
1, 18820
1, 18724
1, 18692
1, 18724
1, 18660
1, 18724
1, 18852
1, 18868
1, 18836
1, 18740
1, 18660
1, 18612
1, 18484
1, 18452
1, 18532
1, 18740
1, 18788
1, 18708
1, 18612
1, 18532
1, 18420
1, 18356
1, 18244
1, 18196
1, 18068
1, 18100
1, 18228
1, 18180
1, 18228
1, 18452
1, 18868
1, 18884
1, 18868
1, 18884
1, 18916
1, 18836
1, 18852
1, 18868
1, 19284
1, 19268
1, 19460
1, 19572
1, 19508
1, 19412
1, 19284
1, 19284
1, 19620
1, 19636
1, 19668
1, 20068
1, 20292
1, 20276
1, 20228
1, 20116
1, 20132
1, 20068
1, 19972
1, 19956
1, 19956
1, 19844
1, 19732
1, 19700
1, 19668
1, 19668
1, 19588
1, 19492
1, 19508
1, 19556
1, 19492
1, 19396
1, 19412
1, 19364
1, 19220
1, 19140
1, 19044
1, 18948
1, 18884
1, 18836
1, 18756
1, 18756
1, 18692
1, 18692
1, 18692
1, 18548
1, 18484
1, 18388
1, 18372
1, 18356
1, 18308
1, 18228
1, 18212
1, 18196
1, 18148
1, 18068
1, 17988
1, 17924
1, 17908
1, 17812
1, 17764
1, 17732
1, 17828
1, 17876
1, 17796
1, 17764
1, 17860
1, 17876
1, 17780
1, 17700
1, 17620
1, 17524
1, 17476
1, 17460
1, 17428
1, 17412
1, 17380
1, 17316
1, 17252
1, 17124
1, 17060
1, 17028
1, 16964
1, 16948
1, 16980
1, 17236
1, 17204
1, 17124
1, 17156
1, 17076
1, 16996
1, 16932
1, 16852
1, 16788
1, 16724
1, 16740
1, 16660
1, 16612
1, 16548
1, 16532
1, 16452
1, 16388
1, 16371
1, 16275
1, 16307
1, 16484
1, 16484
1, 16532
1, 16564
1, 16628
1, 16612
1, 16580
1, 16532
1, 16452
1, 16404
1, 16355
1, 16323
1, 16259
1, 16227
1, 16147
1, 16099
1, 16019
1, 16019
1, 15971
1, 15891
1, 15859
1, 15955
1, 15939
1, 15907
1, 15939
1, 15971
1, 15907
1, 15859
1, 16115
1, 16115
1, 16083
1, 16035
1, 16003
1, 15955
1, 15971
1, 15987
1, 16003
1, 15907
1, 15859
1, 15843
1, 15859
1, 15859
1, 15795
1, 15891
1, 15939
1, 15907
1, 15859
1, 15843
1, 15763
1, 15683
1, 15635
1, 15587
1, 15539
1, 15539
1, 15491
1, 15443
1, 15443
1, 15491
1, 15475
1, 15523
1, 15523
1, 15459
1, 15395
1, 15363
1, 15299
1, 15267
1, 15203
1, 15187
1, 15235
1, 15203
1, 15139
1, 15155
1, 15251
1, 15203
1, 15171
1, 15139
1, 15091
1, 15011
1, 14995
1, 14979
1, 15011
1, 14963
1, 14947
1, 15043
1, 15107
1, 15091
1, 15043
1, 14995
1, 14947
1, 14883
1, 14835
1, 14819
1, 14867
1, 14851
1, 14819
1, 14755
1, 14771
1, 14707
1, 14659
1, 14611
1, 14563
1, 14515
1, 14451
1, 14435
1, 14387
1, 14339
1, 14307
1, 14259
1, 14259
1, 14243
1, 14195
1, 14179
1, 14131
1, 14115
1, 14051
1, 13987
1, 13955
1, 13923
1, 13875
1, 13843
1, 13811
1, 13795
1, 13763
1, 13699
1, 13699
1, 13715
1, 13747
1, 13683
1, 13651
1, 13603
1, 13587
1, 13523
1, 13491
1, 13459
1, 13491
1, 13491
1, 13475
1, 13379
1, 13395
1, 13315
1, 13283
1, 13267
1, 13219
1, 13219
1, 13171
1, 13203
1, 13139
1, 13107
1, 13059
1, 13059
1, 13059
1, 12995
1, 12979
1, 12963
1, 12931
1, 12915
1, 12915
1, 12851
1, 12819
1, 12803
1, 12819
1, 12787
1, 12755
1, 12803
1, 12819
1, 12819
1, 12803
1, 12771
1, 12723
1, 12675
1, 12643
1, 12627
1, 12707
1, 12659
1, 12643
1, 12643
1, 12611
1, 12595
1, 12659
1, 12675
1, 12627
1, 12579
1, 12595
1, 12499
1, 12515
1, 12499
1, 12499
1, 12483
1, 12531
1, 12531
1, 12531
1, 12467
1, 12515
1, 12531
1, 12515
1, 12499
1, 12435
1, 12419
1, 12371
1, 12403
1, 12435
1, 12435
1, 12403
1, 12387
1, 12355
1, 12339
1, 12339
1, 12339
1, 12339
1, 12323
1, 12323
1, 12291
1, 12274
1, 12226
1, 12242
1, 12274
1, 12210
1, 12210
1, 12178
1, 12146
1, 12194
1, 12178
1, 12146
1, 12130
1, 12098
1, 12130
1, 12082
1, 12066
1, 12050
1, 12034
1, 12018
1, 12034
1, 12114
1, 12082
1, 12082
1, 12066
1, 12034
1, 12018
1, 12002
1, 12050
1, 12018
1, 12002
1, 12018
1, 12002
1, 12002
1, 11986
1, 11986
1, 11954
1, 11970
1, 12066
1, 12082
1, 12034
1, 12034
1, 12002
1, 12002
1, 11922
1, 11906
1, 11922
1, 11906
1, 11858
1, 11858
1, 11906
1, 11874
1, 11874
1, 11890
1, 11842
1, 11858
1, 11810
1, 11778
1, 11810
1, 11826
1, 11794
1, 11842
1, 11858
1, 11826
1, 11842
1, 11794
1, 11778
1, 11810
1, 11714
1, 11698
1, 11714
1, 11698
1, 11746
1, 11714
1, 11762
1, 11730
1, 11794
1, 11826
1, 11794
1, 11762
1, 11778
1, 11762
1, 11778
1, 11762
1, 11746
1, 11746
1, 11730
1, 11746
1, 11714
1, 11682
1, 11698
1, 11634
1, 11650
1, 11698
1, 11682
1, 11666
1, 11666
1, 11666
1, 11618
1, 11602
1, 11634
1, 11618
1, 11602
1, 11586
1, 11586
1, 11602
1, 11602
1, 11554
1, 11538
1, 11522
1, 11538
1, 11490
1, 11490
1, 11554
1, 11586
1, 11586
1, 11586
1, 11570
1, 11602
1, 11586
1, 11618
1, 11634
1, 11618
1, 11586
1, 11586
1, 11618
1, 11586
1, 11554
1, 11586
1, 11682
1, 11714
1, 11698
1, 11714
1, 11746
1, 11778
1, 11794
1, 11794
1, 11826
1, 11810
1, 11858
1, 11906
1, 11874
1, 11874
1, 11842
1, 11826
1, 11826
1, 11810
1, 11778
1, 11762
1, 11842
1, 11874
1, 11890
1, 11858
1, 11842
1, 11890
1, 11938
1, 11906
1, 11906
1, 11906
1, 11842
1, 11858
1, 11826
1, 11842
1, 11794
1, 11810
1, 11810
1, 11826
1, 11826
1, 11874
1, 11842
1, 11858
1, 11842
1, 11810
1, 11810
1, 11794
1, 11778
1, 11794
1, 11970
1, 12050
1, 11986
1, 12018
1, 11970
1, 11986
1, 12002
1, 11970
1, 11922
1, 11954
1, 11922
1, 11938
1, 11970
1, 12066
1, 12162
1, 12146
1, 12130
1, 12146
1, 12226
1, 12210
1, 12194
1, 12194
1, 12258
1, 12419
1, 12387
1, 12403
1, 12387
1, 12403
1, 12403
1, 12435
1, 12483
1, 12483
1, 12483
1, 12563
1, 12691
1, 12707
1, 12803
1, 12819
1, 12803
1, 12835
1, 12915
1, 12899
1, 12883
1, 12851
1, 12835
1, 12787
1, 12771
1, 12867
1, 12899
1, 12899
1, 12899
1, 13027
1, 13123
1, 13155
1, 13155
1, 13203
1, 13235
1, 13235
1, 13203
1, 13187
1, 13171
1, 13155
1, 13235
1, 13267
1, 13251
1, 13251
1, 13363
1, 13475
1, 13459
1, 13427
1, 13523
1, 13683
1, 13763
1, 13747
1, 13811
1, 13907
1, 14035
1, 14163
1, 14227
1, 14211
1, 14387
1, 14595
1, 14787
1, 14899
1, 14851
1, 14787
1, 14819
1, 14915
1, 15075
1, 15315
1, 15427
1, 15347
1, 15363
1, 15395
1, 15379
1, 15555
1, 15875
1, 16163
1, 16179
1, 16580
1, 16996
1, 16980
1, 17012
1, 16964
1, 16900
1, 16868
1, 16788
1, 16756
1, 16804
1, 16724
1, 16804
1, 16836
1, 17044
1, 17140
1, 17092
1, 17012
1, 16916
1, 16868
1, 16772
1, 16820
1, 16900
1, 16932
1, 16852
1, 16820
1, 16772
1, 16692
1, 16644
1, 16580
1, 16500
1, 16468
1, 16420
1, 16404
1, 16452
1, 16644
1, 16868
1, 16916
1, 17268
1, 17428
1, 17412
1, 17508
1, 17604
1, 17540
1, 17444
1, 17380
1, 17380
1, 17316
1, 17364
1, 17284
1, 17252
1, 17412
1, 17668
1, 17588
1, 17604
1, 17652
1, 17588
1, 17556
1, 17444
1, 17476
1, 17716
1, 17636
1, 17572
1, 17556
1, 17508
1, 17444
1, 17364
1, 17300
1, 17220
1, 17140
1, 17156
1, 17124
1, 17172
1, 17220
1, 17140
1, 17124
1, 17140
1, 17092
1, 17156
1, 17284
1, 17364
1, 17268
1, 17220
1, 17092
1, 17108
1, 17060
1, 17044
1, 16964
1, 16916
1, 16916
1, 16996
1, 16900
1, 16932
1, 16916
1, 16900
1, 16788
1, 16788
1, 16788
1, 16756
1, 16756
1, 16676
1, 16628
1, 16580
1, 16612
1, 16516
1, 16532
1, 16484
1, 16436
1, 16355
1, 16355
1, 16307
1, 16275
1, 16291
1, 16275
1, 16339
1, 16388
1, 16339
1, 16404
1, 16516
1, 16628
1, 16596
1, 16516
1, 16436
1, 16388
1, 16307
1, 16291
1, 16307
1, 16211
1, 16163
1, 16323
1, 16500
1, 16548
1, 16516
1, 16740
1, 16900
1, 16948
1, 16884
1, 16836
1, 16772
1, 16724
1, 16724
1, 16676
1, 16692
1, 16628
1, 16692
1, 16708
1, 16660
1, 16612
1, 16676
1, 16708
1, 16692
1, 16612
1, 16548
1, 16516
1, 16468
1, 16404
1, 16516
1, 16948
1, 17284
1, 17380
1, 17300
1, 17252
1, 17284
1, 17428
1, 17364
1, 17268
1, 17204
1, 17092
1, 17124
1, 17156
1, 17108
1, 17012
1, 16996
1, 17092
1, 17076
1, 17124
1, 17028
1, 16996
1, 17012
1, 17124
1, 17124
1, 17044
1, 17012
1, 17300
1, 17364
1, 17268
1, 17220
1, 17076
1, 17028
1, 16964
1, 16980
1, 17188
1, 17284
1, 17220
1, 17172
1, 17076
1, 17012
1, 16980
1, 16884
1, 16804
1, 16740
1, 16788
1, 16772
1, 16740
1, 16820
1, 16820
1, 16772
1, 16788
1, 16692
1, 16628
1, 16644
1, 16692
1, 16644
1, 16596
1, 16676
1, 16692
1, 16596
1, 16580
1, 16532
1, 16500
1, 16564
1, 16644
1, 16580
1, 16516
1, 16452
1, 16388
1, 16291
1, 16227
1, 16291
1, 16211
1, 16195
1, 16179
1, 16147
1, 16099
1, 16051
1, 15971
1, 15971
1, 15907
1, 15923
1, 15875
1, 15827
1, 15779
1, 15795
1, 15779
1, 15715
1, 15667
1, 15587
1, 15555
1, 15523
1, 15571
1, 15651
1, 15635
1, 15699
1, 15763
1, 15699
1, 15683
1, 15699
1, 15811
1, 15843
1, 15827
1, 15779
1, 15747
1, 15699
1, 15603
1, 15555
1, 15459
1, 15411
1, 15347
1, 15283
1, 15235
1, 15299
1, 15235
1, 15187
1, 15155
1, 15123
1, 15075
1, 15027
1, 14963
1, 14963
1, 14915
1, 14915
1, 14931
1, 14947
1, 14867
1, 14819
1, 14803
1, 14739
1, 14691
1, 14627
1, 14595
1, 14531
1, 14483
1, 14419
1, 14387
1, 14339
1, 14323
1, 14307
1, 14291
1, 14211
1, 14243
1, 14163
1, 14179
1, 14163
1, 14099
1, 14099
1, 14067
1, 14051
1, 14067
1, 14051
1, 13987
1, 14003
1, 13923
1, 13907
1, 13939
1, 13923
1, 13875
1, 13891
1, 13875
1, 13859
1, 13859
1, 13811
1, 13763
1, 13747
1, 13715
1, 13651
1, 13603
1, 13571
1, 13555
1, 13539
1, 13555
1, 13555
1, 13491
1, 13539
1, 13603
1, 13619
1, 13683
1, 13683
1, 13651
1, 13651
1, 13651
1, 13603
1, 13539
1, 13507
1, 13523
1, 13507
1, 13491
1, 13475
1, 13443
1, 13427
1, 13395
1, 13379
1, 13315
1, 13299
1, 13299
1, 13251
1, 13203
1, 13203
1, 13155
1, 13123
1, 13107
1, 13075
1, 13091
1, 13027
1, 12995
1, 12963
1, 12963
1, 12963
1, 12931
1, 12899
1, 12867
1, 12835
1, 12819
1, 12803
1, 12755
1, 12739
1, 12707
1, 12707
1, 12739
1, 12707
1, 12691
1, 12691
1, 12659
1, 12659
1, 12659
1, 12643
1, 12643
1, 12595
1, 12579
1, 12579
1, 12531
1, 12547
1, 12483
1, 12499
1, 12467
1, 12467
1, 12451
1, 12483
1, 12451
1, 12435
1, 12451
1, 12419
1, 12419
1, 12403
1, 12387
1, 12387
1, 12419
1, 12403
1, 12387
1, 12355
1, 12323
1, 12339
1, 12291
1, 12291
1, 12291
1, 12274
1, 12291
1, 12242
1, 12242
1, 12226
1, 12274
1, 12291
1, 12274
1, 12258
1, 12242
1, 12307
1, 12371
1, 12323
1, 12291
1, 12274
1, 12258
1, 12242
1, 12194
1, 12178
1, 12178
1, 12162
1, 12130
1, 12130
1, 12098
1, 12066
1, 12082
1, 12050
1, 12034
1, 11986
1, 12018
1, 12050
1, 12002
1, 11986
1, 12002
1, 12066
1, 12066
1, 12034
1, 12018
1, 12034
1, 12018
1, 12018
1, 11970
1, 11970
1, 11986
1, 11906
1, 11906
1, 11906
1, 11906
1, 11938
1, 11938
1, 11874
1, 11906
1, 11858
1, 11906
1, 11922
1, 11826
1, 11842
1, 11810
1, 11746
1, 11794
1, 11794
1, 11762
1, 11794
1, 11794
1, 11810
1, 11762
1, 11762
1, 11730
1, 11810
1, 11842
1, 11794
1, 11778
1, 11762
1, 11746
1, 11730
1, 11714
1, 11746
1, 11714
1, 11730
1, 11714
1, 11682
1, 11650
1, 11666
1, 11666
1, 11634
1, 11618
1, 11570
1, 11666
1, 11666
1, 11650
1, 11682
1, 11650
1, 11650
1, 11634
1, 11618
1, 11602
1, 11618
1, 11586
1, 11586
1, 11586
1, 11554
1, 11570
1, 11538
1, 11586
1, 11538
1, 11570
1, 11570
1, 11586
1, 11570
1, 11538
1, 11538
1, 11586
1, 11586
1, 11618
1, 11570
1, 11570
1, 11554
1, 11554
1, 11586
1, 11602
1, 11586
1, 11634
1, 11618
1, 11634
1, 11666
1, 11650
1, 11682
1, 11682
1, 11666
1, 11650
1, 11618
1, 11650
1, 11650
1, 11666
1, 11586
1, 11650
1, 11682
1, 11762
1, 11826
1, 11842
1, 11842
1, 11858
1, 11874
1, 11858
1, 11874
1, 11842
1, 11842
1, 11826
1, 11826
1, 11874
1, 11858
1, 11826
1, 11842
1, 11810
1, 11794
1, 11794
1, 11826
1, 11826
1, 11826
1, 11874
1, 11874
1, 11938
1, 11906
1, 11906
1, 11938
1, 11970
1, 11938
1, 11906
1, 11890
1, 11890
1, 11842
1, 11890
1, 11938
1, 11922
1, 11922
1, 11906
1, 11890
1, 11874
1, 11858
1, 11858
1, 11858
1, 11906
1, 11890
1, 11890
1, 11890
1, 11858
1, 11874
1, 11938
1, 11938
1, 11922
1, 11890
1, 11890
1, 11874
1, 11890
1, 11890
1, 11954
1, 11938
1, 12066
1, 12130
1, 12242
1, 12258
1, 12242
1, 12210
1, 12226
1, 12194
1, 12162
1, 12146
1, 12130
1, 12114
1, 12114
1, 12146
1, 12194
1, 12162
1, 12178
1, 12178
1, 12162
1, 12162
1, 12130
1, 12162
1, 12146
1, 12194
1, 12178
1, 12178
1, 12210
1, 12162
1, 12162
1, 12146
1, 12226
1, 12226
1, 12210
1, 12194
1, 12258
1, 12291
1, 12307
1, 12339
1, 12339
1, 12355
1, 12323
1, 12339
1, 12274
1, 12307
1, 12242
1, 12258
1, 12274
1, 12339
1, 12291
1, 12291
1, 12258
1, 12274
1, 12274
1, 12242
1, 12210
1, 12371
1, 12563
1, 12563
1, 12675
1, 12739
1, 12899
1, 12915
1, 12883
1, 12915
1, 12867
1, 12819
1, 12803
1, 12771
1, 12803
1, 12883
1, 13011
1, 12979
1, 12995
1, 13043
1, 13075
1, 13091
1, 13059
1, 13155
1, 13331
1, 13299
1, 13251
1, 13619
1, 14019
1, 14099
1, 14179
1, 14195
1, 14643
1, 15171
1, 15411
1, 15459
1, 15571
1, 15715
1, 15683
1, 15683
1, 15667
1, 15587
1, 15539
1, 15651
1, 15715
1, 15667
1, 15603
1, 15555
1, 15507
1, 15507
1, 15459
1, 15491
1, 15507
1, 15571
1, 15683
1, 15699
1, 15763
1, 16115
1, 16147
1, 16099
1, 16019
1, 15971
1, 15907
1, 15827
1, 15811
1, 15891
1, 16211
1, 16436
1, 16436
1, 16355
1, 16307
1, 16227
1, 16147
1, 16147
1, 16131
1, 16227
1, 16259
1, 16211
1, 16195
1, 16243
1, 16163
1, 16163
1, 16163
1, 16307
1, 16323
1, 16532
1, 16868
1, 16868
1, 16836
1, 16868
1, 16772
1, 16740
1, 16676
1, 16868
1, 17076
1, 17028
1, 17092
1, 17156
1, 17252
1, 17220
1, 17204
1, 17188
1, 17252
1, 17236
1, 17444
1, 17476
1, 17540
1, 17796
1, 17828
1, 17924
1, 18244
1, 18500
1, 18420
1, 18324
1, 18260
1, 18260
1, 18196
1, 18468
1, 18660
1, 18612
1, 18692
1, 18948
1, 19028
1, 18964
1, 18884
1, 18868
1, 18820
1, 18852
1, 18852
1, 18788
1, 18996
1, 19172
1, 19172
1, 19060
1, 19220
1, 19572
1, 19508
1, 19444
1, 19476
1, 19716
1, 19732
1, 19844
1, 20148
1, 20100
1, 20100
1, 20260
1, 20260
1, 20148
1, 20164
1, 20372
1, 20292
1, 20180
1, 20452
1, 20789
1, 20837
1, 20757
1, 20661
1, 20565
1, 20452
1, 20356
1, 20324
1, 20308
1, 20180
1, 20340
1, 20420
1, 20356
1, 20485
1, 20420
1, 20292
1, 20164
1, 20132
1, 20052
1, 20052
1, 19940
1, 19892
1, 19796
1, 19668
1, 19620
1, 19764
1, 19796
1, 19716
1, 19620
1, 19492
1, 19412
1, 19364
1, 19284
1, 19204
1, 19108
1, 19044
1, 19076
1, 19076
1, 18964
1, 19060
1, 19044
1, 19316
1, 19700
1, 19604
1, 19556
1, 19412
1, 19348
1, 19236
1, 19236
1, 19172
1, 19060
1, 18948
1, 18884
1, 18804
1, 18852
1, 19028
1, 18980
1, 19092
1, 19236
1, 19156
1, 19044
1, 18932
1, 18868
1, 18772
1, 18660
1, 18564
1, 18484
1, 18388
1, 18340
1, 18276
1, 18228
1, 18164
1, 18372
1, 18388
1, 18324
1, 18388
1, 18292
1, 18196
1, 18116
1, 18132
1, 18052
1, 18020
1, 18100
1, 18324
1, 18292
1, 18308
1, 18340
1, 18404
1, 18356
1, 18292
1, 18404
1, 18308
1, 18228
1, 18116
1, 18068
1, 17988
1, 18020
1, 17988
1, 17924
1, 17844
1, 17780
1, 17700
1, 17620
1, 17540
1, 17444
1, 17364
1, 17300
1, 17300
1, 17252
1, 17156
1, 17140
1, 17188
1, 17204
1, 17220
1, 17204
1, 17172
1, 17268
1, 17220
1, 17140
1, 17076
1, 16980
1, 16932
1, 16884
1, 16804
1, 16724
1, 16708
1, 16676
1, 16628
1, 16596
1, 16548
1, 16692
1, 16788
1, 16724
1, 16804
1, 16756
1, 16708
1, 16692
1, 16660
1, 16580
1, 16676
1, 16852
1, 16948
1, 16932
1, 16884
1, 16852
1, 16932
1, 16900
1, 16868
1, 16884
1, 17012
1, 17108
1, 16980
1, 16884
1, 16804
1, 16740
1, 16740
1, 16660
1, 16612
1, 16532
1, 16468
1, 16500
1, 16484
1, 16468
1, 16452
1, 16420
1, 16516
1, 16436
1, 16388
1, 16436
1, 16436
1, 16339
1, 16259
1, 16163
1, 16083
1, 16051
1, 15971
1, 15891
1, 15971
1, 15971
1, 15907
1, 15891
1, 15843
1, 15811
1, 15907
1, 15875
1, 15891
1, 15843
1, 15779
1, 15731
1, 15667
1, 15635
1, 15603
1, 15539
1, 15523
1, 15491
1, 15427
1, 15427
1, 15347
1, 15299
1, 15267
1, 15267
1, 15251
1, 15235
1, 15283
1, 15203
1, 15139
1, 15123
1, 15123
1, 15075
1, 14995
1, 14963
1, 14883
1, 14883
1, 14803
1, 14739
1, 14675
1, 14627
1, 14595
1, 14547
1, 14531
1, 14515
1, 14435
1, 14403
1, 14339
1, 14291
1, 14275
1, 14211
1, 14163
1, 14131
1, 14115
1, 14019
1, 13987
1, 13955
1, 13923
1, 13907
1, 13907
1, 13795
1, 13779
1, 13731
1, 13715
1, 13667
1, 13651
1, 13619
1, 13603
1, 13539
1, 13603
1, 13555
1, 13539
1, 13491
1, 13491
1, 13443
1, 13427
1, 13363
1, 13347
1, 13331
1, 13363
1, 13331
1, 13299
1, 13251
1, 13203
1, 13187
1, 13139
1, 13171
1, 13075
1, 13059
1, 13043
1, 12979
1, 12963
1, 12995
1, 12979
1, 12931
1, 12899
1, 12899
1, 12883
1, 12851
1, 12803
1, 12787
1, 12739
1, 12723
1, 12771
1, 12723
1, 12723
1, 12691
1, 12659
1, 12659
1, 12627
1, 12579
1, 12579
1, 12563
1, 12547
1, 12531
1, 12499
1, 12499
1, 12483
1, 12435
1, 12451
1, 12483
1, 12499
1, 12451
1, 12435
1, 12467
1, 12387
1, 12355
1, 12355
1, 12339
1, 12403
1, 12307
1, 12307
1, 12291
1, 12226
1, 12194
1, 12226
1, 12210
1, 12226
1, 12194
1, 12162
1, 12162
1, 12130
1, 12098
1, 12066
1, 12114
1, 12114
1, 12098
1, 12114
1, 12098
1, 12066
1, 12066
1, 12050
1, 12082
1, 12082
1, 12034
1, 12034
1, 12018
1, 12050
1, 12018
1, 12018
1, 12018
1, 11986
1, 11970
1, 11922
1, 11938
1, 11938
1, 11890
1, 11890
1, 11938
1, 11906
1, 11858
1, 11858
1, 11826
1, 11826
1, 11826
1, 11826
1, 11794
1, 11778
1, 11778
1, 11778
1, 11778
1, 11778
1, 11778
1, 11746
1, 11746
1, 11746
1, 11714
1, 11698
1, 11666
1, 11682
1, 11714
1, 11730
1, 11682
1, 11698
1, 11682
1, 11682
1, 11682
1, 11682
1, 11682
1, 11666
1, 11634
1, 11666
1, 11634
1, 11618
1, 11618
1, 11634
1, 11618
1, 11602
1, 11618
1, 11618
1, 11618
1, 11602
1, 11618
1, 11586
1, 11602
1, 11618
1, 11586
1, 11586
1, 11554
1, 11602
1, 11650
1, 11634
1, 11634
1, 11634
1, 11634
1, 11666
1, 11682
1, 11634
1, 11634
1, 11602
1, 11602
1, 11618
1, 11586
1, 11618
1, 11602
1, 11570
1, 11554
1, 11554
1, 11586
1, 11554
1, 11506
1, 11522
1, 11506
1, 11522
1, 11554
1, 11522
1, 11538
1, 11586
1, 11570
1, 11570
1, 11554
1, 11522
1, 11522
1, 11522
1, 11490
1, 11522
1, 11522
1, 11522
1, 11506
1, 11474
1, 11554
1, 11570
1, 11586
1, 11570
1, 11554
1, 11602
1, 11586
1, 11554
1, 11554
1, 11554
1, 11522
1, 11538
1, 11522
1, 11506
1, 11490
1, 12451
1, 12499
1, 12499
1, 12499
1, 12499
1, 12467
1, 12451
1, 12435
1, 12467
1, 12451
1, 12451
1, 12467
1, 12467
1, 12467
1, 12499
1, 12515
1, 12499
1, 12499
1, 12499
1, 12531
1, 12531
1, 12515
1, 12531
1, 12483
1, 12515
1, 12483
1, 12467
1, 12483
1, 12483
1, 12531
1, 12531
1, 12531
1, 12531
1, 12515
1, 12483
1, 12515
1, 12515
1, 12483
1, 12499
1, 12483
1, 12531
1, 12515
1, 12547
1, 12499
1, 12515
1, 12515
1, 12515
1, 12515
1, 12531
1, 12515
1, 12483
1, 12451
1, 12483
1, 12499
1, 12499
1, 12531
1, 12531
1, 12531
1, 12531
1, 12531
1, 12515
1, 12499
1, 12387
1, 12467
1, 12467
1, 12451
1, 12499
1, 12419
1, 12515
1, 12483
1, 12467
1, 12499
1, 12499
1, 12483
1, 12499
1, 12451
1, 12435
1, 12419
1, 12403
1, 12451
1, 12483
1, 12483
1, 12515
1, 12499
1, 12467
1, 12451
1, 12435
1, 12467
1, 12499
1, 12499
1, 12515
1, 12515
1, 12515
1, 12483
1, 12467
1, 12467
1, 12467
1, 12483
1, 12451
1, 12467
1, 12483
1, 12467
1, 12515
1, 12483
1, 12435
1, 12451
1, 12483
1, 12499
1, 12483
1, 12483
1, 12467
1, 12451
1, 12467
1, 12483
1, 12467
1, 12499
1, 12499
1, 12515
1, 12547
1, 12483
1, 12483
1, 12483
1, 12499
1, 12499
1, 12499
1, 12483
1, 12499
1, 12467
1, 12467
1, 12483
1, 12515
1, 12483
1, 12547
1, 12531
1, 12531
1, 12515
1, 12515
1, 12499
1, 12515
1, 12531
1, 12515
1, 12531
1, 12531
1, 12515
1, 12515
1, 12531
1, 12515
1, 12531
1, 12515
1, 12483
1, 12499
1, 12499
1, 12515
1, 12563
1, 12579
1, 12547
1, 12595
1, 12563
1, 12563
1, 12579
1, 12563
1, 12547
1, 12547
1, 12563
1, 12563
1, 12547
1, 12563
1, 12563
1, 12579
1, 12563
1, 12579
1, 12531
1, 12531
1, 12563
1, 12611
1, 12595
1, 12611
1, 12627
1, 12611
1, 12579
1, 12595
1, 12611
1, 12627
1, 12595
1, 12579
1, 12627
1, 12691
1, 12659
1, 12659
1, 12643
1, 12659
1, 12627
1, 12627
1, 12643
1, 12611
1, 12659
1, 12675
1, 12643
1, 12691
1, 12627
1, 12627
1, 12643
1, 12627
1, 12611
1, 12627
1, 12643
1, 12611
1, 12643
1, 12611
1, 12627
1, 12611
1, 12643
1, 12611
1, 12627
1, 12643
1, 12643
1, 12659
1, 12627
1, 12643
1, 12595
1, 12643
1, 12643
1, 12579
1, 12659
1, 12627
1, 12643
1, 12643
1, 12643
1, 12643
1, 12643
1, 12643
1, 12643
1, 12707
1, 12691
1, 12675
1, 12659
1, 12659
1, 12659
1, 12627
1, 12675
1, 12675
1, 12659
1, 12675
1, 12659
1, 12723
1, 12723
1, 12771
1, 12739
1, 12707
1, 12707
1, 12691
1, 12675
1, 12691
1, 12675
1, 12691
1, 12707
1, 12723
1, 12723
1, 12723
1, 12707
1, 12707
1, 12723
1, 12723
1, 12723
1, 12739
1, 12707
1, 12723
1, 12691
1, 12707
1, 12707
1, 12675
1, 12691
1, 12579
1, 12723
1, 12739
1, 12723
1, 12739
1, 12723
1, 12739
1, 12723
1, 12755
1, 12739
1, 12787
1, 12739
1, 12707
1, 12739
1, 12755
1, 12755
1, 12739
1, 12739
1, 12707
1, 12755
1, 12739
1, 12739
1, 12755
1, 12739
1, 12755
1, 12771
1, 12787
1, 12771
1, 12755
1, 12755
1, 12723
1, 12739
1, 12771
1, 12739
1, 12739
1, 12739
1, 12739
1, 12723
1, 12771
1, 12835
1, 12883
1, 12899
1, 12883
1, 12851
1, 12851
1, 12851
1, 12867
1, 12835
1, 12803
1, 12819
1, 12867
1, 12883
1, 12899
1, 12899
1, 12883
1, 12835
1, 12851
1, 12851
1, 12851
1, 12867
1, 12883
1, 12851
1, 12835
1, 12867
1, 12883
1, 12883
1, 12867
1, 12867
1, 12835
1, 12883
1, 12867
1, 12851
1, 12851
1, 12835
1, 12835
1, 12819
1, 12867
1, 12851
1, 12851
1, 12851
1, 12835
1, 12835
1, 12867
1, 12883
1, 12931
1, 13027
1, 13043
1, 13043
1, 13059
1, 13123
1, 13107
1, 13123
1, 13139
1, 13187
1, 13203
1, 13251
1, 13203
1, 13203
1, 13203
1, 13187
1, 13235
1, 13235
1, 13251
1, 13235
1, 13251
1, 13219
1, 13203
1, 13379
1, 13411
1, 13443
1, 13395
1, 13363
1, 13347
1, 13363
1, 13379
1, 13411
1, 13443
1, 13443
1, 13459
1, 13459
1, 13443
1, 13459
1, 13459
1, 13475
1, 13491
1, 13683
1, 13715
1, 13731
1, 13747
1, 13779
1, 13763
1, 13795
1, 13795
1, 13747
1, 13923
1, 14067
1, 14051
1, 14019
1, 14003
1, 13971
1, 13955
1, 13955
1, 13939
1, 13987
1, 14051
1, 14099
1, 14131
1, 14131
1, 14147
1, 14323
1, 14499
1, 14547
1, 14499
1, 14627
1, 14915
1, 14963
1, 14979
1, 14947
1, 14899
1, 14899
1, 14835
1, 14851
1, 14819
1, 14787
1, 14755
1, 14723
1, 14755
1, 14803
1, 14787
1, 14771
1, 14819
1, 14819
1, 14867
1, 14867
1, 14835
1, 14851
1, 14947
1, 14947
1, 15091
1, 15187
1, 15203
1, 15171
1, 15075
1, 15091
1, 15091
1, 15059
1, 15011
1, 15027
1, 15075
1, 15219
1, 15251
1, 15235
1, 15267
1, 15315
1, 15299
1, 15315
1, 15299
1, 15283
1, 15299
1, 15267
1, 15235
1, 15283
1, 15363
1, 15347
1, 15299
1, 15235
1, 15187
1, 15171
1, 15139
1, 15139
1, 15043
1, 15091
1, 15091
1, 15107
1, 15091
1, 15075
1, 15059
1, 15011
1, 14963
1, 14931
1, 14899
1, 14979
1, 14963
1, 14931
1, 14883
1, 14835
1, 14803
1, 14771
1, 14739
1, 14755
1, 14755
1, 14707
1, 14707
1, 14675
1, 14627
1, 14659
1, 14707
1, 14691
1, 14691
1, 14691
1, 14739
1, 14707
1, 14675
1, 14643
1, 14659
1, 14835
1, 14851
1, 14803
1, 14787
1, 14691
1, 14691
1, 14691
1, 14691
1, 14675
1, 14643
1, 14611
1, 14563
1, 14547
1, 14547
1, 14515
1, 14531
1, 14483
1, 14595
1, 14659
1, 14643
1, 14611
1, 14579
1, 14563
1, 14547
1, 14499
1, 14499
1, 14435
1, 14419
1, 14435
1, 14403
1, 14387
1, 14387
1, 14403
1, 14387
1, 14371
1, 14355
1, 14371
1, 14355
1, 14339
1, 14339
1, 14291
1, 14259
1, 14291
1, 14259
1, 14259
1, 14339
1, 14371
1, 14355
1, 14387
1, 14419
1, 14419
1, 14403
1, 14355
1, 14371
1, 14387
1, 14403
1, 14403
1, 14387
1, 14483
1, 14531
1, 14547
1, 14483
1, 14467
1, 14451
1, 14483
1, 14467
1, 14467
1, 14483
1, 14451
1, 14419
1, 14387
1, 14371
1, 14339
1, 14323
1, 14307
1, 14275
1, 14227
1, 14227
1, 14243
1, 14403
1, 14483
1, 14483
1, 14563
1, 14531
1, 14483
1, 14435
1, 14435
1, 14435
1, 14403
1, 14467
1, 14451
1, 14499
1, 14483
1, 14451
1, 14467
1, 14403
1, 14387
1, 14371
1, 14339
1, 14355
1, 14403
1, 14387
1, 14339
1, 14339
1, 14339
1, 14323
1, 14291
1, 14259
1, 14291
1, 14339
1, 14323
1, 14323
1, 14275
1, 14307
1, 14275
1, 14275
1, 14291
1, 14291
1, 14371
1, 14403
1, 14403
1, 14403
1, 14419
1, 14371
1, 14371
1, 14355
1, 14419
1, 14435
1, 14419
1, 14387
1, 14387
1, 14339
1, 14371
1, 14403
1, 14355
1, 14355
1, 14339
1, 14307
1, 14307
1, 14275
1, 14275
1, 14275
1, 14243
1, 14243
1, 14291
1, 14307
1, 14323
1, 14355
1, 14323
1, 14307
1, 14339
1, 14339
1, 14339
1, 14355
1, 14355
1, 14323
1, 14323
1, 14291
1, 14291
1, 14275
1, 14259
1, 14227
1, 14227
1, 14243
1, 14211
1, 14227
1, 14163
1, 14131
1, 14099
1, 14115
1, 14131
1, 14131
1, 14099
1, 14099
1, 14131
1, 14195
1, 14211
1, 14275
1, 14291
1, 14323
1, 14291
1, 14291
1, 14323
1, 14323
1, 14307
1, 14275
1, 14259
1, 14259
1, 14227
1, 14227
1, 14195
1, 14211
1, 14195
1, 14131
1, 14147
1, 14131
1, 14067
1, 14083
1, 14147
1, 14163
1, 14131
1, 14115
1, 14115
1, 14131
1, 14115
1, 14083
1, 14083
1, 14067
1, 14083
1, 14067
1, 14083
1, 14051
1, 14083
1, 14051
1, 14067
1, 13955
1, 14035
1, 14067
1, 14003
1, 13987
1, 13987
1, 13987
1, 13923
1, 13875
1, 13891
1, 13843
1, 13891
1, 14035
1, 14051
1, 14115
1, 14195
1, 14147
1, 14131
1, 14083
1, 14051
1, 14051
1, 14083
1, 14067
1, 14051
1, 14019
1, 14003
1, 14019
1, 14099
1, 14083
1, 14051
1, 14035
1, 14083
1, 14083
1, 14083
1, 14115
1, 14099
1, 14131
1, 14083
1, 14131
1, 14067
1, 14131
1, 14163
1, 14147
1, 14147
1, 14147
1, 14147
1, 14131
1, 14099
1, 14115
1, 14099
1, 14083
1, 14051
1, 14019
1, 14003
1, 14019
1, 14003
1, 14035
1, 13971
1, 13955
1, 13923
1, 13971
1, 13955
1, 13939
1, 13923
1, 13923
1, 13875
1, 13875
1, 13843
1, 13875
1, 13859
1, 13843
1, 13827
1, 13811
1, 13827
1, 13859
1, 13939
1, 13955
1, 14147
1, 14147
1, 14147
1, 14179
1, 14195
1, 14179
1, 14163
1, 14147
1, 14099
1, 14099
1, 14067
1, 14051
1, 14019
1, 13971
1, 13971
1, 13971
1, 13971
1, 13955
1, 13939
1, 13987
1, 14003
1, 13987
1, 13955
1, 13923
1, 13907
1, 13939
1, 13987
1, 14003
1, 13987
1, 13987
1, 14003
1, 14003
1, 13987
1, 13987
1, 13923
1, 13907
1, 13907
1, 13923
1, 13939
1, 13891
1, 13875
1, 13859
1, 13859
1, 13827
1, 13859
1, 13843
1, 13827
1, 13843
1, 13795
1, 13779
1, 13763
1, 13731
1, 13731
1, 13715
1, 13715
1, 13699
1, 13699
1, 13683
1, 13683
1, 13667
1, 13651
1, 13619
1, 13619
1, 13651
1, 13635
1, 13651
1, 13603
1, 13603
1, 13587
1, 13555
1, 13571
1, 13555
1, 13507
1, 13507
1, 13507
1, 13571
1, 13571
1, 13571
1, 13539
1, 13523
1, 13491
1, 13523
1, 13475
1, 13507
1, 13475
1, 13475
1, 13491
1, 13443
1, 13427
1, 13427
1, 13395
1, 13411
1, 13347
1, 13347
1, 13395
1, 13395
1, 13411
1, 13363
1, 13347
1, 13363
1, 13347
1, 13395
1, 13379
1, 13331
1, 13363
1, 13331
1, 13347
1, 13315
1, 13315
1, 13331
1, 13363
1, 13395
1, 13395
1, 13411
1, 13395
1, 13379
1, 13363
1, 13347
1, 13347
1, 13331
1, 13363
1, 13379
1, 13347
1, 13363
1, 13331
1, 13315
1, 13315
1, 13299
1, 13299
1, 13299
1, 13283
1, 13331
1, 13267
1, 13299
1, 13283
1, 13267
1, 13251
1, 13235
1, 13219
1, 13203
1, 13203
1, 13187
1, 13171
1, 13203
1, 13139
1, 13219
1, 13251
1, 13235
1, 13251
1, 13187
1, 13187
1, 13203
1, 13187
1, 13171
1, 13171
1, 13251
1, 13235
1, 13203
1, 13203
1, 13187
1, 13171
1, 13155
1, 13203
1, 13171
1, 13155
1, 13171
1, 13155
1, 13123
1, 13123
1, 13091
1, 13091
1, 13107
1, 13091
1, 13123
1, 13091
1, 13107
1, 13091
1, 13107
1, 13075
1, 13091
1, 13091
1, 13091
1, 13091
1, 13091
1, 13107
1, 13139
1, 13139
1, 13123
1, 13107
1, 13107
1, 13107
1, 13091
1, 13123
1, 13107
1, 13107
1, 13091
1, 13075
1, 13043
1, 13043
1, 13075
1, 13107
1, 13139
1, 13107
1, 13123
1, 13123
1, 13107
1, 13107
1, 13107
1, 13091
1, 13107
1, 13107
1, 13107
1, 13139
1, 13107
1, 13091
1, 13091
1, 13091
1, 13091
1, 13091
1, 13123
1, 13091
1, 13123
1, 13123
1, 13139
1, 13123
1, 13123
1, 13107
1, 13123
1, 13123
1, 13203
1, 13187
1, 13203
1, 13155
1, 13107
1, 13155
1, 13139
1, 13155
1, 13139
1, 13139
1, 13107
1, 13107
1, 13203
1, 13123
1, 13091
1, 13123
1, 13139
1, 13155
1, 13139
1, 13123
1, 13107
1, 13107
1, 13107
1, 13059
1, 13075
1, 13107
1, 13123
1, 13139
1, 13107
1, 13091
1, 13091
1, 13107
1, 13091
1, 13107
1, 13075
1, 13091
1, 13059
1, 13043
1, 13059
1, 13027
1, 13059
1, 13075
1, 13091
1, 13203
1, 13187
1, 13187
1, 13171
1, 13123
1, 13155
1, 13123
1, 13171
1, 13123
1, 13107
1, 13107
1, 13123
1, 13091
1, 13075
1, 13091
1, 13075
1, 13091
1, 13075
1, 13091
1, 13075
1, 13059
1, 13027
1, 13043
1, 13059
1, 13091
1, 13027
1, 13075
1, 13075
1, 13011
1, 13027
1, 12979
1, 13011
1, 13011
1, 12995
1, 12995
1, 13027
1, 13027
1, 13027
1, 13027
1, 13027
1, 13027
1, 13027
1, 12995
1, 13011
1, 13011
1, 12995
1, 12995
1, 13011
1, 13027
1, 13027
1, 13059
1, 13027
1, 13027
1, 12995
1, 12995
1, 12979
1, 13011
1, 12995
1, 12963
1, 12979
1, 12995
1, 13027
1, 13011
1, 12979
1, 12963
1, 12995
1, 12995
1, 12995
1, 12979
1, 12995
1, 12995
1, 12979
1, 12963
1, 12963
1, 12947
1, 12947
1, 12947
1, 12979
1, 12963
1, 12947
1, 12979
1, 12995
1, 12995
1, 12995
1, 12979
1, 12963
1, 12963
1, 12947
1, 12963
1, 12963
1, 12979
1, 12979
1, 12963
1, 12979
1, 12963
1, 12979
1, 13011
1, 12979
1, 12979
1, 12995
1, 12995
1, 12995
1, 12963
1, 12963
1, 12979
1, 12963
1, 12979
1, 12979
1, 12995
1, 12979
1, 13011
1, 12979
1, 12947
1, 12963
1, 12931
1, 12931
1, 12931
1, 12931
1, 12915
1, 12899
1, 12899
1, 12899
1, 12947
1, 12979
1, 12947
1, 12979
1, 12947
1, 12931
1, 12931
1, 12931
1, 12963
1, 12963
1, 12947
1, 12931
1, 12963
1, 12963
1, 12963
1, 12947
1, 12947
1, 12963
1, 12931
1, 12915
1, 12915
1, 12899
1, 12947
1, 12931
1, 12931
1, 12931
1, 12915
1, 12947
1, 12947
1, 12947
1, 12915
1, 12899
1, 12915
1, 12947
1, 12931
1, 12915
1, 12947
1, 12963
1, 12979
1, 12979
1, 12963
1, 12963
1, 12931
1, 12931
1, 12931
1, 12963
1, 13043
1, 12979
1, 12995
1, 12963
1, 12979
1, 13011
1, 13091
1, 13123
1, 13107
1, 13171
1, 13139
1, 13139
1, 13123
1, 13139
1, 13139
1, 13123
1, 13155
1, 13107
1, 13107
1, 13123
1, 13091
1, 13091
1, 13107
1, 13123
1, 13123
1, 13139
1, 13123
1, 13107
1, 13155
1, 13203
1, 13315
1, 13379
1, 13363
1, 13459
1, 13475
1, 13651
1, 13923
1, 13971
1, 14131
1, 14355
1, 14563
1, 14595
1, 14579
1, 14531
1, 14531
1, 14499
1, 14579
1, 14627
1, 14675
1, 14739
1, 14739
1, 14915
1, 14963
1, 14979
1, 14931
1, 14947
1, 15027
1, 14979
1, 15187
1, 15379
1, 15443
1, 15459
1, 15411
1, 15475
1, 15427
1, 15379
1, 15427
1, 15427
1, 15379
1, 15363
1, 15347
1, 15411
1, 15411
1, 15427
1, 15395
1, 15363
1, 15363
1, 15395
1, 15379
1, 15395
1, 15459
1, 15683
1, 15731
1, 15715
1, 15651
1, 15603
1, 15731
1, 15827
1, 15907
1, 15843
1, 15811
1, 15763
1, 15763
1, 15763
1, 15827
1, 15907
1, 15923
1, 15843
1, 15875
1, 15843
1, 15843
1, 15875
1, 15843
1, 15795
1, 15747
1, 15811
1, 15859
1, 15939
1, 15875
1, 15843
1, 15875
1, 15939
1, 15907
1, 15843
1, 15763
1, 15843
1, 16003
1, 16179
1, 16195
1, 16179
1, 16195
1, 16468
1, 16612
1, 16564
1, 16516
1, 16756
1, 16900
1, 17044
1, 17028
1, 17028
1, 17108
1, 17172
1, 17060
1, 17076
1, 17156
1, 17108
1, 17076
1, 17124
1, 17092
1, 17108
1, 17268
1, 17300
1, 17300
1, 17332
1, 17332
1, 17396
1, 17332
1, 17316
1, 17332
1, 17364
1, 17380
1, 17364
1, 17348
1, 17396
1, 17508
1, 17620
1, 17668
1, 18004
1, 18164
1, 18340
1, 18292
1, 18276
1, 18292
1, 18308
1, 18244
1, 18260
1, 18196
1, 18116
1, 18052
1, 17972
1, 17924
1, 17876
1, 17844
1, 17860
1, 17780
1, 17716
1, 17668
1, 17636
1, 17572
1, 17508
1, 17412
1, 17364
1, 17300
1, 17252
1, 17220
1, 17156
1, 17108
1, 17028
1, 16980
1, 16948
1, 16932
1, 16916
1, 16884
1, 16932
1, 16980
1, 16996
1, 16932
1, 16884
1, 16836
1, 16820
1, 16788
1, 16756
1, 16756
1, 16740
1, 16692
1, 16676
1, 16628
1, 16596
1, 16532
1, 16532
1, 16468
1, 16420
1, 16371
1, 16323
1, 16291
1, 16243
1, 16195
1, 16147
1, 16131
1, 16099
1, 16115
1, 16083
1, 16035
1, 16003
1, 15971
1, 16019
1, 16099
1, 16051
1, 15971
1, 15955
1, 15939
1, 15907
1, 15939
1, 15955
1, 15939
1, 15971
1, 16003
1, 15923
1, 15907
1, 15859
1, 15859
1, 15843
1, 15747
1, 15811
1, 15763
1, 15747
1, 15715
1, 15651
1, 15779
1, 15731
1, 15731
1, 15699
1, 15635
1, 15683
1, 15699
1, 15667
1, 15651
1, 15635
1, 15587
1, 15571
1, 15539
1, 15523
1, 15491
1, 15475
1, 15539
1, 15459
1, 15459
1, 15523
1, 15475
1, 15523
1, 15523
1, 15523
1, 15635
1, 15651
1, 15811
1, 15763
1, 15747
1, 15859
1, 15811
1, 15763
1, 15779
1, 15731
1, 15699
1, 15651
1, 15683
1, 15635
1, 15571
1, 15523
1, 15475
1, 15459
1, 15395
1, 15363
1, 15315
1, 15331
1, 15267
1, 15347
1, 15347
1, 15299
1, 15267
1, 15283
1, 15235
1, 15235
1, 15203
1, 15203
1, 15251
1, 15283
1, 15379
1, 15363
1, 15331
1, 15299
1, 15251
1, 15203
1, 15155
1, 15171
1, 15171
1, 15187
1, 15155
1, 15123
1, 15075
1, 15091
1, 15075
1, 15107
1, 15075
1, 15059
1, 15011
1, 15059
1, 15043
1, 15011
1, 14963
1, 14963
1, 14963
1, 14931
1, 14883
1, 14883
1, 14883
1, 14899
1, 14851
1, 14819
1, 14803
1, 14787
1, 14755
1, 14771
1, 14707
1, 14691
1, 14707
1, 14675
1, 14659
1, 14675
1, 14659
1, 14643
1, 14627
1, 14595
1, 14611
1, 14627
1, 14611
1, 14579
1, 14531
1, 14563
1, 14499
1, 14467
1, 14451
1, 14387
1, 14387
1, 14403
1, 14355
1, 14355
1, 14323
1, 14291
1, 14259
1, 14227
1, 14243
1, 14227
1, 14227
1, 14227
1, 14195
1, 14163
1, 14163
1, 14115
1, 14099
1, 14099
1, 14115
1, 14115
1, 14083
1, 14163
1, 14163
1, 14163
1, 14115
1, 14083
1, 14051
1, 14083
1, 14035
1, 14019
1, 14019
1, 14051
1, 14051
1, 14051
1, 14035
1, 14003
1, 13987
1, 13987
1, 13971
1, 13955
1, 13939
1, 13939
1, 13891
1, 13907
1, 13843
1, 13843
1, 13843
1, 13779
1, 13811
1, 13795
1, 13779
1, 13779
1, 13747
1, 13731
1, 13715
1, 13683
1, 13651
1, 13667
1, 13667
1, 13667
1, 13651
1, 13651
1, 13635
1, 13635
1, 13619
1, 13619
1, 13587
1, 13603
1, 13587
1, 13635
1, 13603
1, 13587
1, 13587
1, 13619
1, 13603
1, 13619
1, 13587
1, 13587
1, 13587
1, 13587
1, 13571
1, 13571
1, 13555
1, 13555
1, 13523
1, 13539
1, 13507
1, 13491
1, 13475
1, 13475
1, 13459
1, 13475
1, 13443
1, 13443
1, 13443
1, 13459
1, 13411
1, 13395
1, 13379
1, 13379
1, 13379
1, 13347
1, 13395
1, 13395
1, 13395
1, 13347
1, 13379
1, 13395
1, 13331
1, 13331
1, 13299
1, 13283
1, 13267
1, 13283
1, 13315
1, 13299
1, 13315
1, 13283
1, 13267
1, 13267
1, 13251
1, 13251
1, 13235
1, 13267
1, 13283
1, 13267
1, 13235
1, 13235
1, 13219
1, 13219
1, 13219
1, 13219
1, 13203
1, 13203
1, 13219
1, 13203
1, 13203
1, 13219
1, 13203
1, 13203
1, 13155
1, 13171
1, 13203
1, 13251
1, 13235
1, 13203
1, 13187
1, 13171
1, 13187
1, 13187
1, 13219
1, 13251
1, 13219
1, 13235
1, 13203
1, 13203
1, 13187
1, 13203
1, 13203
1, 13187
1, 13139
1, 13107
1, 13187
1, 13187
1, 13187
1, 13187
1, 13171
1, 13155
1, 13171
1, 13155
1, 13203
1, 13203
1, 13171
1, 13171
1, 13171
1, 13171
1, 13171
1, 13171
1, 13171
1, 13155
1, 13139
1, 13123
1, 13123
1, 13139
1, 13139
1, 13123
1, 13107
1, 13123
1, 13059
1, 13059
1, 13091
1, 13091
1, 13091
1, 13091
1, 13107
1, 13123
1, 13123
1, 13091
1, 13123
1, 13107
1, 13091
1, 13107
1, 13091
1, 13123
1, 13075
1, 13091
1, 13075
1, 13059
1, 13043
1, 13043
1, 13027
1, 13059
1, 13043
1, 13043
1, 13011
1, 13011
1, 12995
1, 12979
1, 12995
1, 13059
1, 13059
1, 13027
1, 13043
1, 13011
1, 13011
1, 13011
1, 12995
1, 12995
1, 12963
1, 12995
1, 13027
1, 13027
1, 13043
1, 13027
1, 13011
1, 12995
1, 12995
1, 12979
1, 12979
1, 12947
1, 12995
1, 12995
1, 12995
1, 12979
1, 12963
1, 13011
1, 13011
1, 12995
1, 12995
1, 12995
1, 12995
1, 12931
1, 13011
1, 13011
1, 13011
1, 12963
1, 12963
1, 12931
1, 12947
1, 12947
1, 12963
1, 12963
1, 12995
1, 13011
1, 13011
1, 13027
1, 13027
1, 12979
1, 12979
1, 12995
1, 12963
1, 12995
1, 12995
1, 12995
1, 12995
1, 12995
1, 12995
1, 12963
1, 12995
1, 12963
1, 12947
1, 12979
1, 12963
1, 12979
1, 12963
1, 12979
1, 12979
1, 12963
1, 12979
1, 13011
1, 12995
1, 12979
1, 12963
1, 12979
1, 12979
1, 13027
1, 12947
1, 12947
1, 12979
1, 12979
1, 12963
1, 12963
1, 12947
1, 12931
1, 12931
1, 12947
1, 12947
1, 12947
1, 12915
1, 12931
1, 12931
1, 12931
1, 12963
1, 12963
1, 12947
1, 12963
1, 12963
1, 12979
1, 12995
1, 12995
1, 12979
1, 12963
1, 12947
1, 12947
1, 12947
1, 12931
1, 12931
1, 12947
1, 12963
1, 12947
1, 12963
1, 12963
1, 12947
1, 12995
1, 12995
1, 12995
1, 12963
1, 12979
1, 12995
1, 12963
1, 12947
1, 12947
1, 12979
1, 12963
1, 12947
1, 12931
1, 12947
1, 12931
1, 12947
1, 12947
1, 12915
1, 12931
1, 12979
1, 12979
1, 12947
1, 12963
1, 12963
1, 13011
1, 12995
1, 12963
1, 12963
1, 12979
1, 12979
1, 12963
1, 12979
1, 12979
1, 12947
1, 12979
1, 13011
1, 12995
1, 12995
1, 13011
1, 13011
1, 12995
1, 12979
1, 12979
1, 12963
1, 12963
1, 12979
1, 12979
1, 12979
1, 12995
1, 12979
1, 13011
1, 12995
1, 13027
1, 13011
1, 13027
1, 12995
1, 12963
1, 12979
1, 12979
1, 12963
1, 12963
1, 12963
1, 12963
1, 12963
1, 12979
1, 13011
1, 12995
1, 13011
1, 12979
1, 12995
1, 12963
1, 12963
1, 12979
1, 12979
1, 12979
1, 12979
1, 12963
1, 12963
1, 12995
1, 13011
1, 13027
1, 12995
1, 12995
1, 12995
1, 12995
1, 12963
1, 12963
1, 12963
1, 12995
1, 12963
1, 12963
1, 12963
1, 12979
1, 12979
1, 12931
1, 12931
1, 12931
1, 12931
1, 12947
1, 12963
1, 12947
1, 12947
1, 12931
1, 12963
1, 12979
1, 12963
1, 12947
1, 12963
1, 12947
1, 12931
1, 12931
1, 12947
1, 12963
1, 12947
1, 12947
1, 12963
1, 12947
1, 12931
1, 12947
1, 12931
1, 12979
1, 12995
1, 12979
1, 12963
1, 12995
1, 13011
1, 13027
1, 13011
1, 12979
1, 13027
1, 13011
1, 12995
1, 13011
1, 12995
1, 13011
1, 12995
1, 12995
1, 12995
1, 13027
1, 13043
1, 13027
1, 13011
1, 13011
1, 12995
1, 13027
1, 13075
1, 13123
1, 13123
1, 13107
1, 13091
1, 13059
1, 13075
1, 13091
1, 13091
1, 13075
1, 13075
1, 13059
1, 13075
1, 13043
1, 13059
1, 13043
1, 13059
1, 13043
1, 13107
1, 13123
1, 13139
1, 13187
1, 13171
1, 13171
1, 13187
1, 13171
1, 13155
1, 13139
1, 13155
1, 13155
1, 13107
1, 13123
1, 13139
1, 13139
1, 13139
1, 13139
1, 13123
1, 13139
1, 13091
1, 13107
1, 13139
1, 13139
1, 13171
1, 13155
1, 13171
1, 13171
1, 13155
1, 13123
1, 13171
1, 13139
1, 13171
1, 13155
1, 13171
1, 13187
1, 13155
1, 13139
1, 13139
1, 13139
1, 13123
1, 13123
1, 13123
1, 13171
1, 13139
1, 13171
1, 13123
1, 13139
1, 13123
1, 13155
1, 13187
1, 13171
1, 13203
1, 13203
1, 13219
1, 13171
1, 13187
1, 13187
1, 13203
1, 13171
1, 13155
1, 13139
1, 13139
1, 13123
1, 13187
1, 13139
1, 13139
1, 13155
1, 13155
1, 13171
1, 13155
1, 13139
1, 13155
1, 13139
1, 13123
1, 13139
1, 13155
1, 13139
1, 13123
1, 13091
1, 13091
1, 13075
1, 13091
1, 13043
1, 13027
1, 13043
1, 13027
1, 13027
1, 13011
1, 13027
1, 12995
1, 13011
1, 12995
1, 13075
1, 13075
1, 13091
1, 13091
1, 13075
1, 13043
1, 13075
1, 13043
1, 13027
1, 13107
1, 13155
1, 13139
1, 13123
1, 13107
1, 13123
1, 13091
1, 13075
1, 13123
1, 13155
1, 13155
1, 13219
1, 13235
1, 13235
1, 13267
1, 13251
1, 13267
1, 13283
1, 13251
1, 13299
1, 13299
1, 13267
1, 13235
1, 13235
1, 13219
1, 13347
1, 13443
1, 13427
1, 13443
1, 13507
1, 13443
1, 13443
1, 13411
1, 13411
1, 13427
1, 13443
1, 13411
1, 13443
1, 13491
1, 13491
1, 13491
1, 13459
1, 13443
1, 13427
1, 13395
1, 13443
1, 13427
1, 13491
1, 13587
1, 13619
1, 13715
1, 13859
1, 13859
1, 14003
1, 14147
1, 14243
1, 14243
1, 14259
1, 14259
1, 14227
1, 14211
1, 14163
1, 14163
1, 14195
1, 14179
1, 14163
1, 14131
1, 14115
1, 14051
1, 14035
1, 14035
1, 14003
1, 13987
1, 13987
1, 14003
1, 14083
1, 14179
1, 14275
1, 14307
1, 14339
1, 14435
1, 14515
1, 14483
1, 14467
1, 14435
1, 14467
1, 14515
1, 14515
1, 14579
1, 14659
1, 14723
1, 14723
1, 14707
1, 14643
1, 14707
1, 14771
1, 14835
1, 14915
1, 14915
1, 14899
1, 14883
1, 14867
1, 14883
1, 14835
1, 14803
1, 14819
1, 14883
1, 14867
1, 14915
1, 14931
1, 14899
1, 14851
1, 14835
1, 14819
1, 14755
1, 14739
1, 14755
1, 14883
1, 14963
1, 14931
1, 14899
1, 14979
1, 15155
1, 15187
1, 15315
1, 15299
1, 15267
1, 15443
1, 15395
1, 15379
1, 15363
1, 15347
1, 15395
1, 15459
1, 15523
1, 15459
1, 15603
1, 15795
1, 15907
1, 15843
1, 15795
1, 15795
1, 15747
1, 15731
1, 15667
1, 15619
1, 15603
1, 15587
1, 15523
1, 15475
1, 15427
1, 15363
1, 15347
1, 15299
1, 15283
1, 15251
1, 15203
1, 15219
1, 15171
1, 15171
1, 15235
1, 15203
1, 15123
1, 15091
1, 15043
1, 14995
1, 14979
1, 14947
1, 14931
1, 14947
1, 14947
1, 14947
1, 14915
1, 14931
1, 14947
1, 14899
1, 14899
1, 14819
1, 14819
1, 14771
1, 14835
1, 14835
1, 14803
1, 14771
1, 14771
1, 14771
1, 14771
1, 14739
1, 14723
1, 14803
1, 14771
1, 14819
1, 15011
1, 15011
1, 14963
1, 14947
1, 14931
1, 14867
1, 14883
1, 14835
1, 14803
1, 14787
1, 14771
1, 14707
1, 14691
1, 14659
1, 14627
1, 14627
1, 14595
1, 14579
1, 14595
1, 14579
1, 14547
1, 14547
1, 14611
1, 14755
1, 14675
1, 14691
1, 14691
1, 14675
1, 14755
1, 14899
1, 14915
1, 14867
1, 14851
1, 14819
1, 14819
1, 14819
1, 15011
1, 14995
1, 14963
1, 14979
1, 14979
1, 15011
1, 14963
1, 14947
1, 14915
1, 14899
1, 14883
1, 14851
1, 14851
1, 14819
1, 14883
1, 14931
1, 14899
1, 14883
1, 14819
1, 14835
1, 14771
1, 14787
1, 14771
1, 14755
1, 14707
1, 14659
1, 14659
1, 14627
1, 14595
1, 14515
1, 14563
1, 14563
1, 14563
1, 14563
1, 14563
1, 14547
1, 14515
1, 14515
1, 14451
1, 14403
1, 14403
1, 14387
1, 14371
1, 14323
1, 14403
1, 14387
1, 14371
1, 14371
1, 14371
1, 14339
1, 14323
1, 14291
1, 14259
1, 14243
1, 14211
1, 14195
1, 14179
1, 14291
1, 14307
1, 14259
1, 14259
1, 14227
1, 14195
1, 14163
1, 14211
1, 14115
1, 14211
1, 14227
1, 14195
1, 14211
1, 14307
1, 14307
1, 14275
1, 14259
1, 14227
1, 14291
1, 14259
1, 14307
1, 14323
1, 14307
1, 14275
1, 14291
1, 14259
1, 14227
1, 14211
1, 14179
1, 14243
1, 14339
1, 14355
1, 14323
1, 14323
1, 14323
1, 14291
1, 14275
1, 14259
1, 14227
1, 14243
1, 14227
1, 14227
1, 14195
1, 14243
1, 14211
1, 14195
1, 14179
1, 14163
1, 14115
1, 14131
1, 14131
1, 14131
1, 14131
1, 14115
1, 14115
1, 14083
1, 14099
1, 14099
1, 14099
1, 14115
1, 14083
1, 14083
1, 14035
1, 14019
1, 14019
1, 13987
1, 14003
1, 14003
1, 13923
1, 13923
1, 13923
1, 13923
1, 13939
1, 13939
1, 13907
1, 13907
1, 13891
1, 13875
1, 13827
1, 13843
1, 13811
1, 13811
1, 13779
1, 13779
1, 13779
1, 13747
1, 13731
1, 13731
1, 13699
1, 13715
1, 13747
1, 13763
1, 13763
1, 13731
1, 13731
1, 13699
1, 13715
1, 13715
1, 13683
1, 13667
1, 13635
1, 13651
1, 13731
1, 13763
1, 13747
1, 13731
1, 13699
1, 13667
1, 13683
1, 13699
1, 13683
1, 13667
1, 13635
1, 13683
1, 13715
1, 13779
1, 13779
1, 13747
1, 13731
1, 13699
1, 13683
1, 13683
1, 13651
1, 13635
1, 13651
1, 13651
1, 13651
1, 13619
1, 13619
1, 13603
1, 13587
1, 13619
1, 13619
1, 13619
1, 13619
1, 13635
1, 13587
1, 13619
1, 13619
1, 13603
1, 13587
1, 13571
1, 13587
1, 13651
1, 13635
1, 13619
1, 13587
1, 13619
1, 13603
1, 13603
1, 13571
1, 13571
1, 13603
1, 13635
1, 13619
1, 13587
1, 13539
1, 13539
1, 13523
1, 13507
1, 13491
1, 13475
1, 13491
1, 13555
1, 13571
1, 13539
1, 13523
1, 13475
1, 13459
1, 13491
1, 13507
1, 13491
1, 13491
1, 13427
1, 13411
1, 13443
1, 13427
1, 13427
1, 13427
1, 13427
1, 13411
1, 13395
1, 13395
1, 13395
1, 13379
1, 13363
1, 13347
1, 13331
1, 13331
1, 13299
1, 13299
1, 13315
1, 13283
1, 13283
1, 13267
1, 13267
1, 13299
1, 13299
1, 13267
1, 13251
1, 13267
1, 13267
1, 13235
1, 13235
1, 13219
1, 13219
1, 13219
1, 13203
1, 13171
1, 13155
1, 13155
1, 13171
1, 13171
1, 13155
1, 13139
1, 13139
1, 13155
1, 13139
1, 13155
1, 13155
1, 13123
1, 13123
1, 13139
1, 13139
1, 13107
1, 13091
1, 13075
1, 13059
1, 13043
1, 13059
1, 13075
1, 13075
1, 13059
1, 13075
1, 13043
1, 13059
1, 13059
1, 13091
1, 13107
1, 13027
1, 13059
1, 13011
1, 13043
1, 13027
1, 13043
1, 13043
1, 13043
1, 13059
1, 13059
1, 13043
1, 13043
1, 13043
1, 13059
1, 13043
1, 13027
1, 13043
1, 13011
1, 13011
1, 12979
1, 12979
1, 12979
1, 12979
1, 12979
1, 12995
1, 12979
1, 12979
1, 12963
1, 12995
1, 13043
1, 13011
1, 12979
1, 12947
1, 12963
1, 12931
1, 12931
1, 12931
1, 12979
1, 12963
1, 13011
1, 12947
1, 12947
1, 13027
1, 12995
1, 12995
1, 12947
1, 12995
1, 12963
1, 12931
1, 12963
1, 12947
1, 12963
1, 12947
1, 12947
1, 12931
1, 12947
1, 12947
1, 12899
1, 12883
1, 12803
1, 12867
1, 12899
1, 12915
1, 12899
1, 12915
1, 12899
1, 12899
1, 12883
1, 12883
1, 12883
1, 12835
1, 12739
1, 12835
1, 12835
1, 12835
1, 12851
1, 12867
1, 12835
1, 12867
1, 12803
1, 12803
1, 12835
1, 12803
1, 12835
1, 12819
1, 12803
1, 12803
1, 12787
1, 12771
1, 12851
1, 12787
1, 12803
1, 12819
1, 12803
1, 12819
1, 12851
1, 12835
1, 12803
1, 12819
1, 12819
1, 12819
1, 12803
1, 12803
1, 12771
1, 12771
1, 12771
1, 12755
1, 12771
1, 12755
1, 12787
1, 12771
1, 12755
1, 12771
1, 12787
1, 12819
1, 12803
1, 12819
1, 12803
1, 12803
1, 12803
1, 12803
1, 12803
1, 12787
1, 12771
1, 12787
1, 12771
1, 12771
1, 12787
1, 12787
1, 12819
1, 12803
1, 12771
1, 12755
1, 12755
1, 12755
1, 12755
1, 12755
1, 12787
1, 12771
1, 12787
1, 12787
1, 12771
1, 12771
1, 12787
1, 12787
1, 12787
1, 12771
1, 12755
1, 12755
1, 12739
1, 12755
1, 12755
1, 12755
1, 12755
1, 12739
1, 12755
1, 12771
1, 12739
1, 12739
1, 12707
1, 12723
1, 12739
1, 12707
1, 12739
1, 12739
1, 12755
1, 12739
1, 12707
1, 12755
1, 12771
1, 12787
1, 12803
1, 12787
1, 12771
1, 12739
1, 12755
1, 12755
1, 12755
1, 12771
1, 12771
1, 12803
1, 12787
1, 12771
1, 12771
1, 12771
1, 12755
1, 12771
1, 12755
1, 12771
1, 12739
1, 12755
1, 12771
1, 12803
1, 12803
1, 12771
1, 12771
1, 12787
1, 12819
1, 12803
1, 12787
1, 12755
1, 12755
1, 12739
1, 12723
1, 12723
1, 12723
1, 12739
1, 12787
1, 12755
1, 12755
1, 12739
1, 12755
1, 12771
1, 12787
1, 12771
1, 12771
1, 12771
1, 12787
1, 12771
1, 12755
1, 12739
1, 12739
1, 12771
1, 12787
1, 12771
1, 12755
1, 12739
1, 12739
1, 12755
1, 12771
1, 12803
1, 12803
1, 12771
1, 12803
1, 12803
1, 12771
1, 12803
1, 12835
1, 12803
1, 12835
1, 12819
1, 12835
1, 12835
1, 12835
1, 12803
1, 12819
1, 12803
1, 12803
1, 12803
1, 12771
1, 12803
1, 12819
1, 12787
1, 12803
1, 12819
1, 12803
1, 12803
1, 12803
1, 12803
1, 12803
1, 12803
1, 12851
1, 12867
1, 12835
1, 12867
1, 12851
1, 12835
1, 12851
1, 12835
1, 12819
1, 12851
1, 12851
1, 12867
1, 12851
1, 12819
1, 12819
1, 12819
1, 12835
1, 12851
1, 12819
1, 12819
1, 12819
1, 12851
1, 12867
1, 12835
1, 12819
1, 12819
1, 12851
1, 12851
1, 12851
1, 12835
1, 12883
1, 12835
1, 12835
1, 12851
1, 12835
1, 12851
1, 12851
1, 12835
1, 12803
1, 12851
1, 12867
1, 12867
1, 12867
1, 12867
1, 12851
1, 12851
1, 12835
1, 12835
1, 12819
1, 12819
1, 12835
1, 12819
1, 12835
1, 12835
1, 12819
1, 12819
1, 12819
1, 12835
1, 12851
1, 12851
1, 12851
1, 12883
1, 12851
1, 12819
1, 12899
1, 12867
1, 12835
1, 12803
1, 12851
1, 12899
1, 12899
1, 12899
1, 12899
1, 12931
1, 12915
1, 12899
1, 12899
1, 12915
1, 12963
1, 12931
1, 12931
1, 12931
1, 12931
1, 12931
1, 12931
1, 12947
1, 12915
1, 12899
1, 12931
1, 12931
1, 12899
1, 12915
1, 12931
1, 12931
1, 12883
1, 12883
1, 12867
1, 12899
1, 12915
1, 12947
1, 12899
1, 12931
1, 12931
1, 12931
1, 12931
1, 12915
1, 12899
1, 12915
1, 12883
1, 12947
1, 12947
1, 12931
1, 12915
1, 12931
1, 12915
1, 12915
1, 12915
1, 12899
1, 12931
1, 12915
1, 12899
1, 12883
1, 12931
1, 12931
1, 12947
1, 12947
1, 12947
1, 12931
1, 12883
1, 12963
1, 12963
1, 12931
1, 12931
1, 12947
1, 12931
1, 12947
1, 12931
1, 12931
1, 12899
1, 12931
1, 12947
1, 12947
1, 12931
1, 12947
1, 12915
1, 12915
1, 12915
1, 12947
1, 12979
1, 12995
1, 12979
1, 12963
1, 12963
1, 12947
1, 12947
1, 12963
1, 12947
1, 13011
1, 13027
1, 13011
1, 13027
1, 13027
1, 12995
1, 12995
1, 12995
1, 12963
1, 12963
1, 12963
1, 12963
1, 12979
1, 12963
1, 12979
1, 12995
1, 12979
1, 12995
1, 13027
1, 13027
1, 13043
1, 13043
1, 13011
1, 13059
1, 13059
1, 13059
1, 13075
1, 13059
1, 13075
1, 13091
1, 13027
1, 13027
1, 13059
1, 13043
1, 13027
1, 13027
1, 13059
1, 13075
1, 13075
1, 13043
1, 13059
1, 13043
1, 13043
1, 13027
1, 13027
1, 13027
1, 13027
1, 13027
1, 13027
1, 13027
1, 13011
1, 13011
1, 12995
1, 13011
1, 12995
1, 12979
1, 13059
1, 13075
1, 13059
1, 13043
1, 13027
1, 13027
1, 13027
1, 13011
1, 13011
1, 13027
1, 13011
1, 13043
1, 13011
1, 13011
1, 13011
1, 13027
1, 13027
1, 13027
1, 13043
1, 13027
1, 13011
1, 13027
1, 13011
1, 13043
1, 13043
1, 13027
1, 13027
1, 12995
1, 13043
1, 13059
1, 13075
1, 13043
1, 13043
1, 13027
1, 13043
1, 12995
1, 13011
1, 13011
1, 13011
1, 13011
1, 12979
1, 12979
1, 12979
1, 12995
1, 12963
1, 12995
1, 12963
1, 13011
1, 12963
1, 12979
1, 12963
1, 12979
1, 12963
1, 12947
1, 12979
1, 12963
1, 12979
1, 12963
1, 12963
1, 12947
1, 12915
1, 12931
1, 12947
1, 12947
1, 12963
1, 12995
1, 12947
1, 12947
1, 12931
1, 12931
1, 12947
1, 12947
1, 12931
1, 12947
1, 12915
1, 12867
1, 12915
1, 12931
1, 12915
1, 12899
1, 12915
1, 12899
1, 12915
1, 12915
1, 12899
1, 12899
1, 12899
1, 12931
1, 12931
1, 12883
1, 12899
1, 12899
1, 12915
1, 12883
1, 12899
1, 12883
1, 12915
1, 12883
1, 12883
1, 12915
1, 12899
1, 12899
1, 12899
1, 12883
1, 12867
1, 12851
1, 12883
1, 12867
1, 12851
1, 12835
1, 12867
1, 12883
1, 12867
1, 12867
1, 12883
1, 12867
1, 12867
1, 12867
1, 12867
1, 12851
1, 12851
1, 12835
1, 12835
1, 12851
1, 12867
1, 12915
1, 12995
1, 13027
1, 13043
1, 13011
1, 13059
1, 13043
1, 13027
1, 13043
1, 13091
1, 13155
1, 13139
1, 13123
1, 13123
1, 13107
1, 13123
1, 13267
1, 13347
1, 13395
1, 13395
1, 13427
1, 13635
1, 13859
1, 14051
1, 14147
1, 14131
1, 14099
1, 14163
1, 14291
1, 14403
1, 14403
1, 14387
1, 14403
1, 14483
1, 14499
1, 14515
1, 14515
1, 14499
1, 14531
1, 14499
1, 14547
1, 14643
1, 14611
1, 14579
1, 14611
1, 14787
1, 15027
1, 15107
1, 15139
1, 15171
1, 15123
1, 15123
1, 15059
1, 15011
1, 15075
1, 15203
1, 15171
1, 15155
1, 15155
1, 15091
1, 15107
1, 15379
1, 15443
1, 15379
1, 15379
1, 15379
1, 15299
1, 15283
1, 15347
1, 15379
1, 15347
1, 15299
1, 15283
1, 15315
1, 15331
1, 15283
1, 15315
1, 15347
1, 15331
1, 15283
1, 15251
1, 15203
1, 15171
1, 15107
1, 15107
1, 15123
1, 15075
1, 15075
1, 15043
1, 15043
1, 15043
1, 15059
1, 15187
1, 15411
1, 15443
1, 15427
1, 15475
1, 15651
1, 15683
1, 15635
1, 15555
1, 15539
1, 15475
1, 15523
1, 15491
1, 15443
1, 15395
1, 15379
1, 15363
1, 15331
1, 15299
1, 15235
1, 15203
1, 15203
1, 15171
1, 15171
1, 15155
1, 15235
1, 15267
1, 15251
1, 15235
1, 15235
1, 15251
1, 15171
1, 15155
1, 15139
1, 15107
1, 15155
1, 15187
1, 15187
1, 15107
1, 15107
1, 15107
1, 15059
1, 15011
1, 14979
1, 14995
1, 15043
1, 15011
1, 14963
1, 14947
1, 14947
1, 14899
1, 14915
1, 14915
1, 14931
1, 15011
1, 14995
1, 15043
1, 15203
1, 15299
1, 15491
1, 15459
1, 15427
1, 15411
1, 15363
1, 15363
1, 15267
1, 15267
1, 15235
1, 15107
1, 15203
1, 15155
1, 15171
1, 15187
1, 15187
1, 15155
1, 15155
1, 15155
1, 15123
1, 15123
1, 15139
1, 15107
1, 15091
1, 15091
1, 15059
1, 15027
1, 15043
1, 15123
1, 15251
1, 15235
1, 15219
1, 15171
1, 15155
1, 15139
1, 15091
1, 15059
1, 15043
1, 15011
1, 14963
1, 14947
1, 14963
1, 14931
1, 14915
1, 14947
1, 14947
1, 14899
1, 14835
1, 14835
1, 14931
1, 14963
1, 14963
1, 14947
1, 14899
1, 14899
1, 14947
1, 14883
1, 14851
1, 14851
1, 14883
1, 14883
1, 14915
1, 14963
1, 14979
1, 14947
1, 14979
1, 14963
1, 14979
1, 15187
1, 15251
1, 15203
1, 15171
1, 15123
1, 15075
1, 15043
1, 15027
1, 14963
1, 14947
1, 14899
1, 14883
1, 14867
1, 14899
1, 14851
1, 14835
1, 14787
1, 14755
1, 14771
1, 14739
1, 14771
1, 14851
1, 14835
1, 14899
1, 14947
1, 14931
1, 14931
1, 14963
1, 14931
1, 14883
1, 14883
1, 14867
1, 14835
1, 14835
1, 14819
1, 14755
1, 14851
1, 14851
1, 14803
1, 14803
1, 14771
1, 14771
1, 14755
1, 14707
1, 14659
1, 14691
1, 14659
1, 14675
1, 14643
1, 14627
1, 14627
1, 14595
1, 14611
1, 14611
1, 14563
1, 14579
1, 14659
1, 14691
1, 14659
1, 14627
1, 14643
1, 14611
1, 14579
1, 14531
1, 14563
1, 14563
1, 14547
1, 14499
1, 14467
1, 14435
1, 14419
1, 14371
1, 14419
1, 14435
1, 14435
1, 14515
1, 14515
1, 14499
1, 14547
1, 14531
1, 14499
1, 14467
1, 14435
1, 14435
1, 14387
1, 14403
1, 14387
1, 14403
1, 14419
1, 14371
1, 14339
1, 14307
1, 14307
1, 14307
1, 14259
1, 14243
1, 14211
1, 14259
1, 14291
1, 14291
1, 14339
1, 14307
1, 14339
1, 14323
1, 14323
1, 14275
1, 14243
1, 14291
1, 14243
1, 14227
1, 14259
1, 14227
1, 14227
1, 14211
1, 14227
1, 14211
1, 14179
1, 14275
1, 14227
1, 14163
1, 14147
1, 14147
1, 14147
1, 14131
1, 14115
1, 14115
1, 14163
1, 14147
1, 14323
1, 14371
1, 14307
1, 14371
1, 14307
1, 14307
1, 14291
1, 14307
1, 14307
1, 14243
1, 14243
1, 14291
1, 14291
1, 14291
1, 14291
1, 14339
1, 14307
1, 14307
1, 14307
1, 14339
1, 14339
1, 14355
1, 14291
1, 14259
1, 14195
1, 14259
1, 14211
1, 14163
1, 14147
1, 14115
1, 14131
1, 14243
1, 14307
1, 14323
1, 14291
1, 14307
1, 14291
1, 14307
1, 14227
1, 14227
1, 14195
1, 14211
1, 14195
1, 14163
1, 14147
1, 14131
1, 14115
1, 14115
1, 14067
1, 14067
1, 14035
1, 14035
1, 14051
1, 14051
1, 14083
1, 14051
1, 14035
1, 14019
1, 14003
1, 14003
1, 13987
1, 13987
1, 14019
1, 13987
1, 14019
1, 13987
1, 13955
1, 13955
1, 13987
1, 13939
1, 13955
1, 13907
1, 13875
1, 13891
1, 13859
1, 13875
1, 13859
1, 13859
1, 13859
1, 13843
1, 13811
1, 13827
1, 13779
1, 13763
1, 13763
1, 13811
1, 13843
1, 13747
1, 13747
1, 13715
1, 13747
1, 13747
1, 13715
1, 13699
1, 13667
1, 13667
1, 13635
1, 13635
1, 13651
1, 13699
1, 13667
1, 13667
1, 13619
1, 13635
1, 13699
1, 13699
1, 13667
1, 13667
1, 13603
1, 13619
1, 13619
1, 13603
1, 13603
1, 13571
1, 13555
1, 13539
1, 13523
1, 13523
1, 13539
1, 13507
1, 13491
1, 13475
1, 13491
1, 13491
1, 13475
1, 13459
1, 13475
1, 13443
1, 13459
1, 13443
1, 13459
1, 13459
1, 13427
1, 13427
1, 13395
1, 13395
1, 13363
1, 13347
1, 13299
1, 13347
1, 13299
1, 13347
1, 13331
1, 13315
1, 13299
1, 13283
1, 13283
1, 13315
1, 13315
1, 13299
1, 13283
1, 13283
1, 13267
1, 13251
1, 13251
1, 13283
1, 13235
1, 13267
1, 13235
1, 13219
1, 13219
1, 13187
1, 13203
1, 13219
1, 13187
1, 13203
1, 13219
1, 13203
1, 13203
1, 13203
1, 13171
1, 13155
1, 13123
1, 13155
1, 13139
1, 13123
1, 13123
1, 13155
1, 13139
1, 13155
1, 13123
1, 13123
1, 13123
1, 13107
1, 13155
1, 13155
1, 13123
1, 13107
1, 13123
1, 13123
1, 13171
1, 13171
1, 13155
1, 13107
1, 13123
1, 13075
1, 13107
1, 13075
1, 13075
1, 13075
1, 13059
1, 13091
1, 13155
1, 13139
1, 13107
1, 13123
1, 13091
1, 13091
1, 13091
1, 13059
1, 13091
1, 13091
1, 13107
1, 13107
1, 13091
1, 13091
1, 13091
1, 13107
1, 13059
1, 13043
1, 13059
1, 13059
1, 13075
1, 13075
1, 13043
1, 13059
1, 13091
1, 13123
1, 13059
1, 13043
1, 13075
1, 13059
1, 13091
1, 13187
1, 13187
1, 13187
1, 13203
1, 13187
1, 13187
1, 13171
1, 13171
1, 13155
1, 13187
1, 13187
1, 13139
1, 13155
1, 13155
1, 13123
1, 13139
1, 13139
1, 13155
1, 13171
1, 13155
1, 13155
1, 13107
1, 13123
1, 13123
1, 13155
1, 13155
1, 13139
1, 13107
1, 13091
1, 13123
1, 13123
1, 13123
1, 13107
1, 13091
1, 13123
1, 13075
1, 13107
1, 13075
1, 13075
1, 13107
1, 13107
1, 13123
1, 13123
1, 13123
1, 13123
1, 13075
1, 13075
1, 13091
1, 13155
1, 13107
1, 13059
1, 13075
1, 13075
1, 13107
1, 13075
1, 13091
1, 13059
1, 13091
1, 13027
1, 13059
1, 13043
1, 13043
1, 13059
1, 13075
1, 13027
1, 13059
1, 13059
1, 13043
1, 13043
1, 13011
1, 13027
1, 13075
1, 13027
1, 13011
1, 12979
1, 12995
1, 13011
1, 13011
1, 12995
1, 12995
1, 12995
1, 12995
1, 13011
1, 12995
1, 12979
1, 13011
1, 12995
1, 13011
1, 12995
1, 13011
1, 12979
1, 12995
1, 12995
1, 12963
1, 12979
1, 12995
1, 13027
1, 13027
1, 13027
1, 13027
1, 13011
1, 12995
1, 12979
1, 12995
1, 12963
1, 12963
1, 12947
1, 12979
1, 12963
1, 13027
1, 12979
1, 12995
1, 13011
1, 12979
1, 12995
1, 12979
1, 12963
1, 12963
1, 12947
1, 12979
1, 12963
1, 12979
1, 12995
1, 12963
1, 12979
1, 12995
1, 12931
1, 12963
1, 12931
1, 12947
1, 12931
1, 12947
1, 12947
1, 12963
1, 12947
1, 12963
1, 12947
1, 12947
1, 12947
1, 12915
1, 12931
1, 12947
1, 12931
1, 12947
1, 12915
1, 12931
1, 12915
1, 12947
1, 12931
1, 12915
1, 12899
1, 12899
1, 12915
1, 12915
1, 12915
1, 12931
1, 12931
1, 12931
1, 12931
1, 12931
1, 12915
1, 12899
1, 12899
1, 12899
1, 12867
1, 12899
1, 12883
1, 12899
1, 12899
1, 12931
1, 12931
1, 12963
1, 12947
1, 12931
1, 12931
1, 12931
1, 12915
1, 12963
1, 12915
1, 12931
1, 12899
1, 12915
1, 12899
1, 12931
1, 12947
1, 12931
1, 12931
1, 12947
1, 12947
1, 12947
1, 12947
1, 12915
1, 12931
1, 12899
1, 12931
1, 12915
1, 12931
1, 12915
1, 12899
1, 12883
1, 12915
1, 12931
1, 12883
1, 12899
1, 12883
1, 12915
1, 12883
1, 12899
1, 12899
1, 12915
1, 12931
1, 12963
1, 12883
1, 12899
1, 12899
1, 12899
1, 12899
1, 12851
1, 12883
1, 12915
1, 12931
1, 12979
1, 12947
1, 12979
1, 12979
1, 12963
1, 12931
1, 12931
1, 12947
1, 12947
1, 12947
1, 12963
1, 12931
1, 12931
1, 13011
1, 13011
1, 12979
1, 12995
1, 12979
1, 12979
1, 12963
1, 12979
1, 12947
1, 12963
1, 12979
1, 12979
1, 12979
1, 12963
1, 12947
1, 12931
1, 12963
1, 12963
1, 12947
1, 12979
1, 12963
1, 12979
1, 12963
1, 12963
1, 12979
1, 12947
1, 12931
1, 12931
1, 12963
1, 12963
1, 12963
1, 12947
1, 12947
1, 12931
1, 12931
1, 12947
1, 12931
1, 12947
1, 12931
1, 12979
1, 12963
1, 12963
1, 12963
1, 12979
1, 12995
1, 12979
1, 12963
1, 12963
1, 12963
1, 12947
1, 12947
1, 12931
1, 12931
1, 12979
1, 12963
1, 12963
1, 12963
1, 12931
1, 12979
1, 12963
1, 12963
1, 12963
1, 12979
1, 12979
1, 12979
1, 12995
1, 12979
1, 12963
1, 12963
1, 12979
1, 12963
1, 12963
1, 12979
1, 12995
1, 12979
1, 12963
1, 12947
1, 13027
1, 13059
1, 13059
1, 13027
1, 13011
1, 13027
1, 13011
1, 12995
1, 13027
1, 13011
1, 12995
1, 13027
1, 12995
1, 12995
1, 13011
1, 13043
1, 13043
1, 13027
1, 13043
1, 13011
1, 12995
1, 13011
1, 13011
1, 12995
1, 13027
1, 12995
1, 13011
1, 12995
1, 13011
1, 13011
1, 13011
1, 13011
1, 12995
1, 12979
1, 12979
1, 12979
1, 12995
1, 12995
1, 13011
1, 12995
1, 13027
1, 12995
1, 12995
1, 13011
1, 13027
1, 13027
1, 13059
1, 12995
1, 12995
1, 13011
1, 13011
1, 12995
1, 13011
1, 12995
1, 13027
1, 13011
1, 13011
1, 13011
1, 13107
1, 13091
1, 13091
1, 13091
1, 13059
1, 13043
1, 13059
1, 13075
1, 13059
1, 13059
1, 13059
1, 13043
1, 13059
1, 13043
1, 13059
1, 13059
1, 13059
1, 13043
1, 13075
1, 13027
1, 13043
1, 13027
1, 13011
1, 13011
1, 13011
1, 13027
1, 13043
1, 13011
1, 13027
1, 13059
1, 13091
1, 13075
1, 13091
1, 13091
1, 13075
1, 13059
1, 13059
1, 13059
1, 13075
1, 13075
1, 13107
1, 13075
1, 13075
1, 13043
1, 13043
1, 13059
1, 13059
1, 13059
1, 13043
1, 13043
1, 13027
1, 13027
1, 13027
1, 13043
1, 13059
1, 13091
1, 13059
1, 13059
1, 13027
1, 13027
1, 13027
1, 13027
1, 13027
1, 13043
1, 12995
1, 13011
1, 13011
1, 12979
1, 12995
1, 13043
1, 13043
1, 13075
1, 13043
1, 13043
1, 13027
1, 13107
1, 13091
1, 13075
1, 13123
1, 13091
1, 13123
1, 13091
1, 13091
1, 13075
1, 13139
1, 13107
1, 13107
1, 13107
1, 13091
1, 13091
1, 13075
1, 13123
1, 13171
1, 13123
1, 13171
1, 13139
1, 13123
1, 13107
1, 13091
1, 13123
1, 13139
1, 13139
1, 13171
1, 13107
1, 13171
1, 13187
1, 13187
1, 13203
1, 13171
1, 13187
1, 13267
1, 13203
1, 13203
1, 13203
1, 13203
1, 13235
1, 13251
1, 13235
1, 13219
1, 13235
1, 13267
1, 13267
1, 13267
1, 13251
1, 13251
1, 13283
1, 13299
1, 13283
1, 13267
1, 13251
1, 13315
1, 13331
1, 13299
1, 13315
1, 13315
1, 13347
1, 13459
1, 13459
1, 13475
1, 13491
1, 13507
1, 13491
1, 13523
1, 13555
1, 13539
1, 13571
1, 13587
1, 13587
1, 13587
1, 13555
1, 13555
1, 13539
1, 13539
1, 13523
1, 13475
1, 13555
1, 13507
1, 13507
1, 13555
1, 13651
1, 13651
1, 13619
1, 13587
1, 13603
1, 13587
1, 13651
1, 13683
1, 13683
1, 13699
1, 13667
1, 13747
1, 13715
1, 13715
1, 13747
1, 13779
1, 13747
1, 13763
1, 13763
1, 13747
1, 13731
1, 13715
1, 13763
1, 13747
1, 13715
1, 13715
1, 13715
1, 13859
1, 13987
1, 14003
1, 13987
1, 13987
1, 13939
1, 13907
1, 13907
1, 13859
1, 13955
1, 14051
1, 14099
1, 14035
1, 14147
1, 14307
1, 14339
1, 14451
1, 14547
1, 14515
1, 14451
1, 14611
1, 14803
1, 14899
1, 14883
1, 14851
1, 14819
1, 14867
1, 14867
1, 15075
1, 15091
1, 15091
1, 15091
1, 15123
1, 15075
1, 15043
1, 15027
1, 15011
1, 14979
1, 14995
1, 14947
1, 14931
1, 15027
1, 15043
1, 15027
1, 15059
1, 15107
1, 15075
1, 15203
1, 15171
1, 15155
1, 15123
1, 15107
1, 15091
1, 15091
1, 15203
1, 15267
1, 15267
1, 15219
1, 15219
1, 15171
1, 15171
1, 15155
1, 15203
1, 15187
1, 15155
1, 15203
1, 15235
1, 15315
1, 15299
1, 15283
1, 15267
1, 15251
1, 15347
1, 15379
1, 15411
1, 15459
1, 15507
1, 15459
1, 15459
1, 15427
1, 15443
1, 15395
1, 15347
1, 15363
1, 15299
1, 15299
1, 15299
1, 15283
1, 15283
1, 15299
1, 15267
1, 15347
1, 15283
1, 15299
1, 15347
1, 15315
1, 15235
1, 15283
1, 15203
1, 15187
1, 15187
1, 15171
1, 15203
1, 15171
1, 15123
1, 15123
1, 15139
1, 15107
1, 15059
1, 15027
1, 14995
1, 14979
1, 14899
1, 14899
1, 14899
1, 14899
1, 14963
1, 14931
1, 14899
1, 14915
1, 14851
1, 14851
1, 14851
1, 14851
1, 14867
1, 14835
1, 14819
1, 14883
1, 14915
1, 14899
1, 14899
1, 14883
1, 14835
1, 14867
1, 14851
1, 14787
1, 14739
1, 14739
1, 14723
1, 14691
1, 14659
1, 14675
1, 14659
1, 14627
1, 14595
1, 14595
1, 14627
1, 14739
1, 14771
1, 14691
1, 14675
1, 14643
1, 14627
1, 14611
1, 14627
1, 14595
1, 14531
1, 14563
1, 14531
1, 14531
1, 14531
1, 14547
1, 14563
1, 14547
1, 14531
1, 14499
1, 14467
1, 14467
1, 14515
1, 14547
1, 14531
1, 14531
1, 14499
1, 14547
1, 14531
1, 14563
1, 14515
1, 14643
1, 14643
1, 14627
1, 14691
1, 14691
1, 14691
1, 14675
1, 14739
1, 14787
1, 14755
1, 14675
1, 14675
1, 14723
1, 14707
1, 14691
1, 14691
1, 14691
1, 14771
1, 14803
1, 14787
1, 14755
1, 14739
1, 14691
1, 14659
1, 14675
1, 14691
1, 14659
1, 14691
1, 14675
1, 14691
1, 14691
1, 14659
1, 14643
1, 14627
1, 14595
1, 14643
1, 14819
1, 14899
1, 14867
1, 14867
1, 14931
1, 14995
1, 14963
1, 14915
1, 14867
1, 14867
1, 14803
1, 14803
1, 14867
1, 15027
1, 15139
1, 15107
1, 15091
1, 15155
1, 15107
1, 15091
1, 15059
1, 15091
1, 15139
1, 15171
1, 15203
1, 15203
1, 15203
1, 15219
1, 15187
1, 15235
1, 15363
1, 15347
1, 15315
1, 15283
1, 15235
1, 15219
1, 15155
1, 15139
1, 15187
1, 15139
1, 15107
1, 15075
1, 15075
1, 15203
1, 15235
1, 15203
1, 15251
1, 15187
1, 15171
1, 15139
1, 15123
1, 15091
1, 15059
1, 15027
1, 14995
1, 14947
1, 14995
1, 15059
1, 14995
1, 14947
1, 14931
1, 14915
1, 14867
1, 14883
1, 15011
1, 15011
1, 14979
1, 14931
1, 14931
1, 14883
1, 14851
1, 14819
1, 14819
1, 14787
1, 14707
1, 14707
1, 14707
1, 14803
1, 14819
1, 14835
1, 14819
1, 14787
1, 14771
1, 14755
1, 14707
1, 14691
1, 14723
1, 14819
1, 14787
1, 14803
1, 14787
1, 14739
1, 14707
1, 14723
1, 14707
1, 14723
1, 14707
1, 14675
1, 14627
1, 14611
1, 14563
1, 14547
1, 14547
1, 14515
1, 14563
1, 14499
1, 14499
1, 14467
1, 14467
1, 14419
1, 14515
1, 14531
1, 14467
1, 14451
1, 14419
1, 14387
1, 14387
1, 14419
1, 14403
1, 14355
1, 14339
1, 14323
1, 14275
1, 14259
1, 14243
1, 14275
1, 14307
1, 14339
1, 14275
1, 14259
1, 14243
1, 14227
1, 14179
1, 14179
1, 14163
1, 14147
1, 14115
1, 14099
1, 14051
1, 14051
1, 14019
1, 14051
1, 14035
1, 14067
1, 14083
1, 14115
1, 14083
1, 14035
1, 14019
1, 14003
1, 14003
1, 14019
1, 14003
1, 13987
1, 13971
1, 13955
1, 13923
1, 13923
1, 13891
1, 13907
1, 13891
1, 13859
1, 13843
1, 13795
1, 13779
1, 13795
1, 13843
1, 13827
1, 13843
1, 13827
1, 13795
1, 13763
1, 13795
1, 13763
1, 13763
1, 13763
1, 13731
1, 13731
1, 13747
1, 13747
1, 13715
1, 13715
1, 13699
1, 13667
1, 13651
1, 13651
1, 13667
1, 13651
1, 13635
1, 13603
1, 13603
1, 13651
1, 13619
1, 13571
1, 13587
1, 13571
1, 13539
1, 13523
1, 13539
1, 13507
1, 13523
1, 13507
1, 13491
1, 13491
1, 13475
1, 13459
1, 13443
1, 13459
1, 13395
1, 13411
1, 13395
1, 13395
1, 13395
1, 13395
1, 13411
1, 13411
1, 13395
1, 13379
1, 13363
1, 13331
1, 13347
1, 13347
1, 13315
1, 13315
1, 13315
1, 13331
1, 13299
1, 13267
1, 13283
1, 13283
1, 13251
1, 13267
1, 13251
1, 13267
1, 13267
1, 13283
1, 13251
1, 13251
1, 13267
1, 13235
1, 13219
1, 13251
1, 13203
1, 13203
1, 13187
1, 13171
1, 13155
1, 13187
1, 13203
1, 13219
1, 13235
1, 13219
1, 13203
1, 13187
1, 13155
1, 13187
1, 13171
1, 13187
1, 13203
1, 13203
1, 13219
1, 13203
1, 13187
1, 13203
1, 13219
1, 13203
1, 13235
1, 13219
1, 13219
1, 13203
1, 13219
1, 13203
1, 13203
1, 13219
1, 13251
1, 13235
1, 13219
1, 13235
1, 13235
1, 13251
1, 13219
1, 13203
1, 13187
1, 13187
1, 13187
1, 13155
1, 13187
1, 13171
1, 13171
1, 13155
1, 13171
1, 13155
1, 13187
1, 13139
1, 13155
1, 13139
1, 13123
1, 13123
1, 13107
1, 13123
1, 13123
1, 13107
1, 13155
1, 13123
1, 13155
1, 13123
1, 13107
1, 13091
1, 13107
1, 13091
1, 13059
1, 13107
1, 13075
1, 13091
1, 13091
1, 13059
1, 13075
1, 13059
1, 13043
1, 13059
1, 13027
1, 16420
1, 16420
1, 16420
1, 16420
1, 16404
1, 16404
1, 16388
1, 16404
1, 16452
1, 16436
1, 16404
1, 16420
1, 16404
1, 16404
1, 16404
1, 16388
1, 16420
1, 16468
1, 16484
1, 16468
1, 16452
1, 16436
1, 16452
1, 16420
1, 16420
1, 16404
1, 16388
1, 16388
1, 16404
1, 16388
1, 16404
1, 16404
1, 16420
1, 16420
1, 16420
1, 16420
1, 16436
1, 16500
1, 16516
1, 16500
1, 16484
1, 16468
1, 16468
1, 16484
1, 16452
1, 16452
1, 16452
1, 16516
1, 16500
1, 16516
1, 16484
1, 16468
1, 16500
1, 16484
1, 16548
1, 16532
1, 16516
1, 16516
1, 16516
1, 16500
1, 16532
1, 16468
1, 16468
1, 16500
1, 16516
1, 16516
1, 16484
1, 16452
1, 16500
1, 16548
1, 16500
1, 16516
1, 16516
1, 16516
1, 16532
1, 16516
1, 16516
1, 16532
1, 16532
1, 16516
1, 16548
1, 16548
1, 16548
1, 16532
1, 16532
1, 16548
1, 16564
1, 16548
1, 16548
1, 16564
1, 16580
1, 16580
1, 16580
1, 16580
1, 16564
1, 16532
1, 16564
1, 16644
1, 16660
1, 16676
1, 16692
1, 16676
1, 16692
1, 16708
1, 16676
1, 16644
1, 16644
1, 16644
1, 16644
1, 16692
1, 16660
1, 16660
1, 16660
1, 16644
1, 16644
1, 16628
1, 16628
1, 16612
1, 16644
1, 16628
1, 16644
1, 16676
1, 16660
1, 16676
1, 16628
1, 16676
1, 16692
1, 16708
1, 16692
1, 16660
1, 16692
1, 16676
1, 16676
1, 16660
1, 16660
1, 16644
1, 16644
1, 16692
1, 16692
1, 16708
1, 16708
1, 16724
1, 16740
1, 16708
1, 16692
1, 16724
1, 16692
1, 16692
1, 16708
1, 16724
1, 16724
1, 16740
1, 16740
1, 16756
1, 16772
1, 16740
1, 16724
1, 16692
1, 16724
1, 16692
1, 16708
1, 16708
1, 16708
1, 16740
1, 16708
1, 16740
1, 16740
1, 16708
1, 16692
1, 16676
1, 16692
1, 16708
1, 16676
1, 16692
1, 16708
1, 16676
1, 16676
1, 16644
1, 16660
1, 16692
1, 16692
1, 16708
1, 16676
1, 16692
1, 16676
1, 16724
1, 16708
1, 16708
1, 16692
1, 16676
1, 16660
1, 16676
1, 16708
1, 16692
1, 16692
1, 16676
1, 16676
1, 16676
1, 16692
1, 16676
1, 16692
1, 16708
1, 16708
1, 16692
1, 16724
1, 16708
1, 16788
1, 16804
1, 16804
1, 16836
1, 16820
1, 16788
1, 16788
1, 16788
1, 16788
1, 16788
1, 16804
1, 16836
1, 16820
1, 16804
1, 16804
1, 16772
1, 16788
1, 16772
1, 16788
1, 16820
1, 16804
1, 16788
1, 16788
1, 16820
1, 16788
1, 16804
1, 16852
1, 16868
1, 16868
1, 16852
1, 16836
1, 16836
1, 16820
1, 16836
1, 16836
1, 16868
1, 16868
1, 16884
1, 16868
1, 16836
1, 16868
1, 16900
1, 16884
1, 16884
1, 16836
1, 16836
1, 16868
1, 16900
1, 16884
1, 16868
1, 16884
1, 16916
1, 16948
1, 16964
1, 16948
1, 16932
1, 16916
1, 16948
1, 16900
1, 16900
1, 16916
1, 16868
1, 16884
1, 16916
1, 16868
1, 16916
1, 16884
1, 16916
1, 16916
1, 16916
1, 16900
1, 16900
1, 16932
1, 16900
1, 16900
1, 16932
1, 16916
1, 16916
1, 16948
1, 16932
1, 16932
1, 16916
1, 16900
1, 16900
1, 16868
1, 16868
1, 16916
1, 16932
1, 16916
1, 16900
1, 16868
1, 16868
1, 16868
1, 16884
1, 16916
1, 16916
1, 16900
1, 16868
1, 16852
1, 16868
1, 16868
1, 16900
1, 16884
1, 16852
1, 16852
1, 16820
1, 16820
1, 16836
1, 16852
1, 16868
1, 16900
1, 16916
1, 16868
1, 16868
1, 16836
1, 16836
1, 16852
1, 16836
1, 16836
1, 16836
1, 16852
1, 16820
1, 16804
1, 16820
1, 16804
1, 16788
1, 16756
1, 16820
1, 16804
1, 16804
1, 16836
1, 16836
1, 16804
1, 16788
1, 16772
1, 16756
1, 16788
1, 16708
1, 16724
1, 16740
1, 16756
1, 16804
1, 16788
1, 16756
1, 16756
1, 16740
1, 16756
1, 16756
1, 16772
1, 16772
1, 16772
1, 16756
1, 16772
1, 16836
1, 16980
1, 16980
1, 16964
1, 16980
1, 16964
1, 16932
1, 16916
1, 16916
1, 16868
1, 16884
1, 16900
1, 16900
1, 17092
1, 17204
1, 17252
1, 17220
1, 17204
1, 17316
1, 17316
1, 17348
1, 17396
1, 17364
1, 17396
1, 17380
1, 17380
1, 17396
1, 17412
1, 17460
1, 17476
1, 17428
1, 17412
1, 17428
1, 17492
1, 17604
1, 17732
1, 17716
1, 17700
1, 17684
1, 17668
1, 17652
1, 17636
1, 17604
1, 17588
1, 17588
1, 17636
1, 17700
1, 17748
1, 17716
1, 17684
1, 17652
1, 17636
1, 17588
1, 17588
1, 17572
1, 17588
1, 17572
1, 17588
1, 17604
1, 17572
1, 17556
1, 17604
1, 17636
1, 17620
1, 17636
1, 17652
1, 17668
1, 17652
1, 17636
1, 17604
1, 17684
1, 17764
1, 17764
1, 17780
1, 17732
1, 17732
1, 17716
1, 17684
1, 17668
1, 17668
1, 17652
1, 17668
1, 17780
1, 17748
1, 17732
1, 17764
1, 17812
1, 17828
1, 17828
1, 17988
1, 18036
1, 18036
1, 18020
1, 17988
1, 17956
1, 17940
1, 17924
1, 18020
1, 18036
1, 18020
1, 18020
1, 18116
1, 18436
1, 18756
1, 18772
1, 18724
1, 18852
1, 18964
1, 18948
1, 18964
1, 18964
1, 18980
1, 18964
1, 18900
1, 18852
1, 18820
1, 18788
1, 18772
1, 18756
1, 18708
1, 18676
1, 18660
1, 18612
1, 18580
1, 18596
1, 18724
1, 18724
1, 18708
1, 18628
1, 18660
1, 18724
1, 18836
1, 18804
1, 18804
1, 18804
1, 18756
1, 18756
1, 18724
1, 18724
1, 18692
1, 18708
1, 18660
1, 18628
1, 18644
1, 18612
1, 18580
1, 18564
1, 18548
1, 18516
1, 18580
1, 18564
1, 18548
1, 18500
1, 18484
1, 18436
1, 18420
1, 18404
1, 18420
1, 18452
1, 18436
1, 18372
1, 18356
1, 18324
1, 18276
1, 18244
1, 18212
1, 18276
1, 18244
1, 18212
1, 18212
1, 18180
1, 18180
1, 18148
1, 18100
1, 18100
1, 18068
1, 18116
1, 18164
1, 18196
1, 18180
1, 18180
1, 18228
1, 18164
1, 18180
1, 18148
1, 18116
1, 18100
1, 18084
1, 18084
1, 18052
1, 18068
1, 18020
1, 18020
1, 17956
1, 17940
1, 17972
1, 17956
1, 17908
1, 17908
1, 17908
1, 17908
1, 17924
1, 17812
1, 17812
1, 17780
1, 17796
1, 17876
1, 17908
1, 17908
1, 17860
1, 17828
1, 17796
1, 17796
1, 17828
1, 17780
1, 17748
1, 17700
1, 17716
1, 17700
1, 17652
1, 17636
1, 17588
1, 17604
1, 17588
1, 17556
1, 17572
1, 17588
1, 17572
1, 17556
1, 17508
1, 17540
1, 17524
1, 17476
1, 17492
1, 17476
1, 17492
1, 17540
1, 17492
1, 17476
1, 17492
1, 17476
1, 17444
1, 17476
1, 17508
1, 17492
1, 17476
1, 17428
1, 17444
1, 17524
1, 17556
1, 17508
1, 17476
1, 17460
1, 17428
1, 17380
1, 17396
1, 17364
1, 17396
1, 17396
1, 17492
1, 17508
1, 17492
1, 17460
1, 17460
1, 17412
1, 17380
1, 17380
1, 17332
1, 17348
1, 17316
1, 17300
1, 17348
1, 17332
1, 17316
1, 17300
1, 17348
1, 17476
1, 17508
1, 17492
1, 17476
1, 17460
1, 17508
1, 17508
1, 17460
1, 17476
1, 17508
1, 17556
1, 17556
1, 17588
1, 17556
1, 17556
1, 17524
1, 17476
1, 17476
1, 17476
1, 17460
1, 17444
1, 17396
1, 17380
1, 17364
1, 17332
1, 17316
1, 17316
1, 17300
1, 17300
1, 17300
1, 17284
1, 17284
1, 17316
1, 17380
1, 17396
1, 17364
1, 17364
1, 17332
1, 17300
1, 17284
1, 17284
1, 17252
1, 17300
1, 17300
1, 17300
1, 17284
1, 17268
1, 17284
1, 17316
1, 17332
1, 17332
1, 17316
1, 17284
1, 17284
1, 17252
1, 17284
1, 17364
1, 17396
1, 17412
1, 17364
1, 17348
1, 17316
1, 17268
1, 17268
1, 17300
1, 17348
1, 17316
1, 17316
1, 17316
1, 17284
1, 17268
1, 17332
1, 17364
1, 17380
1, 17444
1, 17412
1, 17460
1, 17428
1, 17396
1, 17460
1, 17460
1, 17444
1, 17412
1, 17412
1, 17396
1, 17396
1, 17396
1, 17332
1, 17348
1, 17300
1, 17364
1, 17428
1, 17396
1, 17380
1, 17300
1, 17380
1, 17380
1, 17380
1, 17348
1, 17332
1, 17332
1, 17316
1, 17364
1, 17380
1, 17396
1, 17348
1, 17348
1, 17332
1, 17268
1, 17300
1, 17364
1, 17332
1, 17332
1, 17332
1, 17300
1, 17380
1, 17396
1, 17396
1, 17380
1, 17380
1, 17348
1, 17348
1, 17380
1, 17364
1, 17364
1, 17348
1, 17332
1, 17300
1, 17284
1, 17252
1, 17220
1, 17220
1, 17252
1, 17236
1, 17188
1, 17172
1, 17140
1, 17092
1, 17140
1, 17220
1, 17252
1, 17220
1, 17204
1, 17188
1, 17220
1, 17204
1, 17172
1, 17124
1, 17140
1, 17124
1, 17092
1, 17076
1, 17060
1, 17028
1, 17044
1, 17028
1, 17044
1, 17060
1, 17044
1, 16996
1, 16996
1, 17028
1, 17060
1, 17044
1, 17028
1, 16964
1, 16980
1, 16980
1, 16980
1, 16980
1, 16964
1, 16948
1, 16948
1, 16948
1, 16916
1, 16916
1, 16948
1, 16932
1, 16948
1, 16980
1, 16964
1, 16932
1, 16932
1, 16900
1, 16868
1, 16852
1, 16852
1, 16852
1, 16868
1, 16852
1, 16836
1, 16820
1, 16804
1, 16772
1, 16788
1, 16820
1, 16788
1, 16804
1, 16788
1, 16756
1, 16772
1, 16740
1, 16724
1, 16740
1, 16740
1, 16772
1, 16804
1, 16772
1, 16772
1, 16740
1, 16724
1, 16756
1, 16724
1, 16708
1, 16708
1, 16724
1, 16756
1, 16756
1, 16740
1, 16724
1, 16740
1, 16708
1, 16676
1, 16676
1, 16692
1, 16772
1, 16804
1, 16804
1, 16772
1, 16756
1, 16740
1, 16708
1, 16724
1, 16708
1, 16724
1, 16708
1, 16708
1, 16660
1, 16676
1, 16660
1, 16660
1, 16628
1, 16628
1, 16660
1, 16676
1, 16676
1, 16676
1, 16660
1, 16628
1, 16612
1, 16596
1, 16660
1, 16660
1, 16660
1, 16644
1, 16612
1, 16660
1, 16660
1, 16660
1, 16628
1, 16612
1, 16628
1, 16596
1, 16596
1, 16580
1, 16612
1, 16596
1, 16580
1, 16548
1, 16580
1, 16596
1, 16564
1, 16548
1, 16548
1, 16564
1, 16612
1, 16644
1, 16660
1, 16644
1, 16628
1, 16612
1, 16564
1, 16548
1, 16596
1, 16580
1, 16564
1, 16564
1, 16564
1, 16548
1, 16516
1, 16596
1, 16612
1, 16612
1, 16596
1, 16612
1, 16580
1, 16580
1, 16580
1, 16596
1, 16628
1, 16644
1, 16660
1, 16628
1, 16628
1, 16596
1, 16596
1, 16596
1, 16564
1, 16580
1, 16580
1, 16548
1, 16580
1, 16564
1, 16580
1, 16596
1, 16628
1, 16612
1, 16580
1, 16580
1, 16564
1, 16580
1, 16548
1, 16516
1, 16532
1, 16580
1, 16580
1, 16548
1, 16548
1, 16548
1, 16548
1, 16548
1, 16548
1, 16548
1, 16548
1, 16564
1, 16596
1, 16564
1, 16596
1, 16612
1, 16628
1, 16644
1, 16676
1, 16660
1, 16644
1, 16612
1, 16612
1, 16612
1, 16612
1, 16644
1, 16660
1, 16612
1, 16628
1, 16580
1, 16564
1, 16596
1, 16596
1, 16564
1, 16548
1, 16580
1, 16564
1, 16580
1, 16564
1, 16596
1, 16564
1, 16580
1, 16564
1, 16580
1, 16596
1, 16644
1, 16612
1, 16612
1, 16580
1, 16580
1, 16612
1, 16580
1, 16580
1, 16612
1, 16596
1, 16612
1, 16628
1, 16628
1, 16612
1, 16612
1, 16596
1, 16580
1, 16580
1, 16580
1, 16628
1, 16596
1, 16596
1, 16596
1, 16596
1, 16580
1, 16580
1, 16548
1, 16548
1, 16564
1, 16548
1, 16564
1, 16564
1, 16580
1, 16580
1, 16564
1, 16628
1, 16628
1, 16676
1, 16660
1, 16644
1, 16628
1, 16612
1, 16612
1, 16612
1, 16628
1, 16612
1, 16596
1, 16612
1, 16580
1, 16612
1, 16660
1, 16612
1, 16644
1, 16612
1, 16660
1, 16596
1, 16596
1, 16580
1, 16580
1, 16596
1, 16596
1, 16580
1, 16580
1, 16612
1, 16596
1, 16596
1, 16564
1, 16564
1, 16516
1, 16548
1, 16580
1, 16580
1, 16628
1, 16612
1, 16628
1, 16612
1, 16644
1, 16660
1, 16708
1, 16724
1, 16724
1, 16708
1, 16708
1, 16676
1, 16676
1, 16676
1, 16692
1, 16676
1, 16676
1, 16660
1, 16676
1, 16660
1, 16660
1, 16676
1, 16676
1, 16676
1, 16660
1, 16660
1, 16660
1, 16628
1, 16644
1, 16628
1, 16612
1, 16580
1, 16596
1, 16628
1, 16644
1, 16644
1, 16708
1, 16756
1, 16740
1, 16756
1, 16868
1, 16868
1, 16948
1, 17028
1, 17044
1, 17140
1, 17156
1, 17156
1, 17156
1, 17124
1, 17124
1, 17172
1, 17172
1, 17252
1, 17348
1, 17444
1, 17476
1, 17492
1, 17588
1, 17716
1, 17716
1, 17780
1, 17972
1, 18180
1, 18164
1, 18164
1, 18212
1, 18212
1, 18180
1, 18132
1, 18100
1, 18068
1, 18052
1, 18068
1, 18084
1, 18036
1, 18084
1, 18036
1, 18020
1, 18020
1, 18020
1, 18084
1, 18180
1, 18148
1, 18132
1, 18116
1, 18228
1, 18324
1, 18308
1, 18292
1, 18244
1, 18324
1, 18308
1, 18324
1, 18372
1, 18516
1, 18516
1, 18548
1, 18516
1, 18516
1, 18500
1, 18516
1, 18516
1, 18580
1, 18596
1, 18532
1, 18532
1, 18500
1, 18500
1, 18532
1, 18516
1, 18500
1, 18484
1, 18468
1, 18468
1, 18580
1, 18820
1, 18868
1, 18980
1, 19044
1, 19028
1, 19012
1, 18964
1, 19012
1, 19204
1, 19252
1, 19236
1, 19204
1, 19124
1, 19124
1, 19076
1, 19076
1, 19124
1, 19108
1, 19172
1, 19188
1, 19188
1, 19204
1, 19284
1, 19268
1, 19252
1, 19252
1, 19220
1, 19204
1, 19156
1, 19188
1, 19124
1, 19076
1, 19092
1, 19156
1, 19172
1, 19156
1, 19140
1, 19060
1, 19060
1, 19012
1, 18980
1, 18948
1, 18932
1, 19028
1, 18948
1, 18948
1, 18868
1, 18884
1, 18820
1, 18804
1, 18772
1, 18724
1, 18708
1, 18660
1, 18628
1, 18628
1, 18596
1, 18612
1, 18708
1, 18724
1, 18692
1, 18708
1, 18708
1, 18676
1, 18644
1, 18596
1, 18612
1, 18580
1, 18548
1, 18516
1, 18628
1, 18836
1, 18788
1, 18868
1, 18900
1, 18852
1, 18852
1, 18836
1, 18836
1, 18788
1, 18772
1, 18772
1, 18852
1, 18804
1, 18756
1, 18740
1, 18740
1, 18788
1, 18756
1, 18724
1, 18676
1, 18644
1, 18612
1, 18596
1, 18580
1, 18532
1, 18548
1, 18628
1, 18676
1, 18692
1, 18644
1, 18628
1, 18612
1, 18580
1, 18580
1, 18548
1, 18516
1, 18484
1, 18500
1, 18468
1, 18548
1, 18564
1, 18564
1, 18644
1, 18628
1, 18596
1, 18628
1, 18644
1, 18612
1, 18580
1, 18532
1, 18516
1, 18468
1, 18404
1, 18404
1, 18436
1, 18436
1, 18436
1, 18436
1, 18404
1, 18388
1, 18356
1, 18356
1, 18340
1, 18404
1, 18452
1, 18436
1, 18420
1, 18420
1, 18388
1, 18340
1, 18340
1, 18372
1, 18308
1, 18356
1, 18324
1, 18276
1, 18308
1, 18324
1, 18324
1, 18308
1, 18340
1, 18308
1, 18324
1, 18292
1, 18276
1, 18292
1, 18260
1, 18228
1, 18244
1, 18260
1, 18276
1, 18244
1, 18228
1, 18196
1, 18292
1, 18308
1, 18420
1, 18452
1, 18420
1, 18436
1, 18436
1, 18404
1, 18564
1, 18596
1, 18740
1, 19028
1, 19092
1, 19076
1, 19060
1, 18980
1, 18996
1, 18980
1, 18932
1, 19028
1, 19140
1, 19172
1, 19172
1, 19188
1, 19300
1, 19300
1, 19268
1, 19236
1, 19204
1, 19172
1, 19124
1, 19108
1, 19092
1, 19060
1, 18980
1, 18964
1, 18916
1, 18884
1, 18852
1, 18884
1, 18916
1, 18916
1, 18836
1, 18820
1, 18772
1, 18724
1, 18692
1, 18692
1, 18628
1, 18612
1, 18580
1, 18564
1, 18612
1, 18708
1, 18708
1, 18644
1, 18596
1, 18564
1, 18500
1, 18500
1, 18484
1, 18468
1, 18420
1, 18420
1, 18436
1, 18436
1, 18372
1, 18340
1, 18308
1, 18324
1, 18340
1, 18308
1, 18404
1, 18548
1, 18548
1, 18532
1, 18516
1, 18484
1, 18452
1, 18468
1, 18452
1, 18548
1, 18500
1, 18484
1, 18484
1, 18420
1, 18388
1, 18388
1, 18388
1, 18340
1, 18308
1, 18276
1, 18292
1, 18276
1, 18260
1, 18244
1, 18196
1, 18244
1, 18260
1, 18260
1, 18212
1, 18212
1, 18148
1, 18132
1, 18116
1, 18100
1, 18036
1, 18036
1, 17988
1, 17972
1, 17972
1, 17956
1, 17940
1, 17956
1, 17908
1, 17892
1, 17876
1, 17844
1, 17844
1, 17812
1, 17780
1, 17780
1, 17732
1, 17732
1, 17700
1, 17684
1, 17716
1, 17684
1, 17668
1, 17636
1, 17620
1, 17604
1, 17572
1, 17572
1, 17540
1, 17572
1, 17556
1, 17540
1, 17524
1, 17524
1, 17492
1, 17460
1, 17524
1, 17524
1, 17476
1, 17492
1, 17524
1, 17524
1, 17508
1, 17476
1, 17428
1, 17428
1, 17428
1, 17396
1, 17380
1, 17396
1, 17380
1, 17396
1, 17348
1, 17300
1, 17268
1, 17284
1, 17284
1, 17252
1, 17220
1, 17236
1, 17220
1, 17188
1, 17172
1, 17172
1, 17156
1, 17172
1, 17172
1, 17172
1, 17140
1, 17124
1, 17124
1, 17124
1, 17108
1, 17076
1, 17140
1, 17092
1, 17076
1, 17092
1, 17076
1, 17060
1, 17028
1, 17028
1, 17012
1, 16996
1, 16996
1, 17028
1, 17012
1, 16996
1, 16996
1, 16964
1, 16964
1, 16964
1, 16932
1, 16932
1, 16932
1, 16900
1, 16884
1, 16916
1, 16900
1, 16900
1, 16900
1, 16884
1, 16868
1, 16868
1, 16852
1, 16836
1, 16820
1, 16836
1, 16836
1, 16836
1, 16820
1, 16852
1, 16788
1, 16788
1, 16772
1, 16772
1, 16756
1, 16756
1, 16788
1, 16772
1, 16756
1, 16788
1, 16820
1, 16804
1, 16788
1, 16804
1, 16756
1, 16756
1, 16740
1, 16772
1, 16788
1, 16772
1, 16788
1, 16772
1, 16772
1, 16772
1, 16772
1, 16756
1, 16724
1, 16724
1, 16724
1, 16724
1, 16708
1, 16724
1, 16740
1, 16756
1, 16756
1, 16740
1, 16724
1, 16692
1, 16708
1, 16676
1, 16676
1, 16660
1, 16660
1, 16612
1, 16644
1, 16644
1, 16660
1, 16628
1, 16628
1, 16628
1, 16644
1, 16644
1, 16644
1, 16644
1, 16612
1, 16596
1, 16580
1, 16596
1, 16628
1, 16628
1, 16628
1, 16580
1, 16596
1, 16580
1, 16612
1, 16660
1, 16644
1, 16660
1, 16644
1, 16612
1, 16644
1, 16596
1, 16580
1, 16548
1, 16564
1, 16580
1, 16548
1, 16612
1, 16628
1, 16596
1, 16596
1, 16596
1, 16564
1, 16580
1, 16580
1, 16580
1, 16532
1, 16564
1, 16564
1, 16580
1, 16548
1, 16580
1, 16564
1, 16548
1, 16532
1, 16564
1, 16532
1, 16532
1, 16532
1, 16516
1, 16580
1, 16564
1, 16580
1, 16564
1, 16548
1, 16532
1, 16516
1, 16532
1, 16532
1, 16516
1, 16500
1, 16500
1, 16500
1, 16436
1, 16516
1, 16580
1, 16532
1, 16516
1, 16548
1, 16484
1, 16516
1, 16516
1, 16516
1, 16532
1, 16516
1, 16484
1, 16452
1, 16516
1, 16516
1, 16468
1, 16516
1, 16516
1, 16516
1, 16516
1, 16484
1, 16500
1, 16484
1, 16484
1, 16452
1, 16484
1, 16516
1, 16468
1, 16468
1, 16484
1, 16484
1, 16468
1, 16468
1, 16468
1, 16452
1, 16468
1, 16484
1, 16484
1, 16452
1, 16452
1, 16436
1, 16452
1, 16452
1, 16468
1, 16468
1, 16484
1, 16452
1, 16436
1, 16468
1, 16484
1, 16468
1, 16484
1, 16468
1, 16484
1, 16484
1, 16452
1, 16420
1, 16452
1, 16484
1, 16452
1, 16452
1, 16452
1, 16436
1, 16484
1, 16500
1, 16484
1, 16484
1, 16452
1, 16468
1, 16468
1, 16484
1, 16468
1, 16484
1, 16468
1, 16436
1, 16420
1, 16452
1, 16484
1, 16484
1, 16484
1, 16484
1, 16500
1, 16468
1, 16468
1, 16468
1, 16452
1, 16500
1, 16484
1, 16484
1, 16484
1, 16484
1, 16500
1, 16468
1, 16484
1, 16500
1, 16548
1, 16564
1, 16580
1, 16548
1, 16580
1, 16596
1, 16596
1, 16564
1, 16564
1, 16580
1, 16596
1, 16612
1, 16580
1, 16580
1, 16548
1, 16564
1, 16564
1, 16564
1, 16548
1, 16564
1, 16548
1, 16564
1, 16532
1, 16548
1, 16580
1, 16580
1, 16596
1, 16548
1, 16548
1, 16548
1, 16548
1, 16564
1, 16628
1, 16644
1, 16644
1, 16660
1, 16644
1, 16628
1, 16644
1, 16708
1, 16740
1, 16724
1, 16740
1, 16692
1, 16692
1, 16708
1, 16676
1, 16708
1, 16740
1, 16692
1, 16708
1, 16708
1, 16740
1, 16788
1, 16772
1, 16820
1, 16868
1, 16884
1, 16884
1, 16884
1, 16884
1, 16836
1, 16820
1, 16868
1, 16932
1, 16868
1, 16852
1, 16884
1, 16868
1, 16932
1, 16932
1, 16932
1, 16916
1, 16916
1, 16916
1, 17028
1, 17044
1, 17076
1, 17108
1, 17092
1, 17092
1, 17060
1, 17044
1, 17108
1, 17204
1, 17220
1, 17268
1, 17316
1, 17316
1, 17284
1, 17316
1, 17236
1, 17236
1, 17220
1, 17204
1, 17268
1, 17268
1, 17300
1, 17300
1, 17284
1, 17300
1, 17316
1, 17332
1, 17316
1, 17348
1, 17412
1, 17380
1, 17412
1, 17428
1, 17508
1, 17556
1, 17748
1, 17988
1, 17956
1, 18132
1, 18228
1, 18260
1, 18244
1, 18292
1, 18388
1, 18436
1, 18452
1, 18452
1, 18436
1, 18420
1, 18404
1, 18372
1, 18356
1, 18308
1, 18276
1, 18292
1, 18276
1, 18260
1, 18244
1, 18276
1, 18260
1, 18228
1, 18212
1, 18180
1, 18340
1, 18372
1, 18388
1, 18500
1, 18660
1, 18724
1, 18692
1, 18676
1, 18756
1, 18724
1, 18740
1, 18692
1, 18708
1, 18660
1, 18676
1, 18660
1, 18788
1, 18820
1, 18756
1, 18740
1, 18852
1, 19028
1, 19060
1, 19124
1, 19076
1, 19028
1, 19076
1, 19060
1, 19044
1, 19092
1, 19188
1, 19172
1, 19140
1, 19156
1, 19108
1, 19188
1, 19236
1, 19380
1, 19380
1, 19476
1, 19732
1, 19876
1, 19844
1, 19796
1, 19748
1, 19716
1, 19764
1, 19796
1, 19764
1, 19748
1, 19716
1, 19668
1, 19732
1, 19764
1, 19812
1, 19940
1, 20180
1, 20116
1, 20084
1, 20260
1, 20276
1, 20196
1, 20228
1, 20260
1, 20340
1, 20388
1, 20581
1, 20485
1, 20436
1, 20485
1, 20549
1, 20533
1, 20677
1, 20773
1, 20837
1, 20821
1, 20917
1, 20901
